569, 1447454524940
452, 1447454524949
518, 1447454524960
561, 1447454524970
439, 1447454524981
519, 1447454524992
499, 1447454525004
512, 1447454525012
507, 1447454525022
471, 1447454525033
519, 1447454525043
555, 1447454525054
509, 1447454525064
558, 1447454525075
559, 1447454525085
476, 1447454525096
550, 1447454525106
470, 1447454525117
494, 1447454525127
533, 1447454525137
460, 1447454525148
505, 1447454525158
469, 1447454525169
434, 1447454525179
514, 1447454525190
433, 1447454525200
449, 1447454525213
504, 1447454525221
429, 1447454525231
494, 1447454525242
483, 1447454525252
445, 1447454525263
519, 1447454525273
455, 1447454525284
461, 1447454525297
504, 1447454525305
412, 1447454525315
493, 1447454525329
473, 1447454525336
429, 1447454525347
524, 1447454525363
460, 1447454525367
472, 1447454525381
529, 1447454525388
457, 1447454525399
527, 1447454525409
515, 1447454525421
440, 1447454525430
530, 1447454525440
474, 1447454525450
503, 1447454525462
571, 1447454525471
511, 1447454525487
574, 1447454525495
584, 1447454525503
577, 1447454525515
631, 1447454525524
566, 1447454525533
606, 1447454525550
600, 1447454525554
440, 1447454525568
489, 1447454525575
541, 1447454525586
481, 1447454525597
567, 1447454525609
495, 1447454525617
497, 1447454525627
564, 1447454525639
489, 1447454525651
547, 1447454525659
573, 1447454525669
513, 1447454525680
611, 1447454525690
571, 1447454525701
565, 1447454525712
645, 1447454525724
576, 1447454525732
640, 1447454525742
677, 1447454525755
587, 1447454525764
661, 1447454525775
596, 1447454525784
570, 1447454525795
616, 1447454525809
523, 1447454525815
556, 1447454525828
570, 1447454525837
497, 1447454525849
556, 1447454525857
501, 1447454525870
427, 1447454525878
497, 1447454525889
433, 1447454525900
485, 1447454525910
515, 1447454525921
446, 1447454525933
543, 1447454525942
525, 1447454525954
496, 1447454525962
555, 1447454525974
472, 1447454525984
494, 1447454525995
530, 1447454526004
472, 1447454526014
549, 1447454526024
513, 1447454526035
496, 1447454526045
575, 1447454526057
486, 1447454526066
514, 1447454526077
538, 1447454526087
449, 1447454526098
525, 1447454526108
513, 1447454526122
426, 1447454526129
514, 1447454526139
444, 1447454526150
456, 1447454526160
497, 1447454526171
408, 1447454526186
473, 1447454526192
443, 1447454526202
407, 1447454526212
476, 1447454526223
413, 1447454526233
450, 1447454526244
502, 1447454526255
452, 1447454526265
539, 1447454526275
523, 1447454526287
489, 1447454526296
591, 1447454526308
551, 1447454526318
541, 1447454526327
564, 1447454526338
475, 1447454526348
537, 1447454526359
523, 1447454526369
484, 1447454526380
605, 1447454526390
557, 1447454526401
478, 1447454526411
479, 1447454526421
433, 1447454526432
521, 1447454526442
498, 1447454526453
434, 1447454526463
501, 1447454526474
445, 1447454526484
476, 1447454526495
532, 1447454526504
466, 1447454526514
532, 1447454526525
523, 1447454526536
464, 1447454526547
533, 1447454526557
472, 1447454526568
479, 1447454526577
536, 1447454526588
470, 1447454526598
536, 1447454526610
537, 1447454526619
489, 1447454526629
570, 1447454526640
508, 1447454526650
502, 1447454526661
554, 1447454526671
459, 1447454526682
503, 1447454526692
509, 1447454526703
450, 1447454526713
519, 1447454526723
465, 1447454526735
462, 1447454526744
532, 1447454526755
456, 1447454526765
504, 1447454526776
521, 1447454526787
463, 1447454526798
537, 1447454526807
487, 1447454526817
480, 1447454526828
544, 1447454526838
469, 1447454526849
512, 1447454526859
518, 1447454526870
445, 1447454526880
512, 1447454526891
477, 1447454526901
474, 1447454526911
546, 1447454526922
468, 1447454526932
513, 1447454526943
535, 1447454526953
467, 1447454526964
543, 1447454526974
503, 1447454526985
484, 1447454526995
551, 1447454527006
476, 1447454527016
518, 1447454527026
543, 1447454527037
477, 1447454527047
545, 1447454527059
512, 1447454527068
491, 1447454527080
554, 1447454527089
468, 1447454527100
501, 1447454527110
528, 1447454527120
455, 1447454527131
526, 1447454527141
499, 1447454527152
469, 1447454527162
539, 1447454527173
466, 1447454527183
491, 1447454527194
536, 1447454527204
518, 1447454527214
581, 1447454527225
458, 1447454527235
412, 1447454527246
542, 1447454527256
487, 1447454527267
501, 1447454527277
530, 1447454527288
455, 1447454527298
528, 1447454527308
508, 1447454527319
476, 1447454527329
544, 1447454527342
480, 1447454527350
504, 1447454527361
549, 1447454527371
478, 1447454527382
540, 1447454527392
524, 1447454527402
493, 1447454527413
579, 1447454527423
513, 1447454527434
525, 1447454527444
568, 1447454527455
490, 1447454527465
550, 1447454527476
533, 1447454527487
477, 1447454527497
542, 1447454527507
465, 1447454527517
484, 1447454527528
528, 1447454527538
442, 1447454527551
504, 1447454527559
498, 1447454527570
454, 1447454527580
539, 1447454527591
476, 1447454527601
481, 1447454527611
529, 1447454527622
459, 1447454527631
518, 1447454527642
509, 1447454527653
458, 1447454527664
532, 1447454527673
472, 1447454527685
477, 1447454527695
531, 1447454527705
458, 1447454527716
511, 1447454527726
508, 1447454527736
461, 1447454527746
536, 1447454527757
477, 1447454527767
475, 1447454527779
530, 1447454527788
453, 1447454527799
501, 1447454527809
516, 1447454527819
457, 1447454527830
537, 1447454527840
489, 1447454527851
483, 1447454527861
545, 1447454527872
467, 1447454527882
517, 1447454527893
533, 1447454527903
460, 1447454527913
533, 1447454527924
483, 1447454527936
471, 1447454527945
535, 1447454527955
459, 1447454527966
509, 1447454527976
518, 1447454527987
457, 1447454527997
534, 1447454528007
491, 1447454528018
500, 1447454528028
622, 1447454528040
508, 1447454528049
462, 1447454528060
477, 1447454528070
475, 1447454528082
563, 1447454528093
509, 1447454528102
490, 1447454528112
558, 1447454528122
483, 1447454528133
526, 1447454528143
549, 1447454528154
482, 1447454528164
565, 1447454528175
532, 1447454528185
509, 1447454528196
585, 1447454528206
514, 1447454528216
550, 1447454528227
586, 1447454528237
516, 1447454528248
599, 1447454528258
574, 1447454528269
553, 1447454528279
630, 1447454528290
548, 1447454528300
570, 1447454528310
573, 1447454528321
490, 1447454528331
546, 1447454528342
498, 1447454528352
470, 1447454528363
545, 1447454528373
463, 1447454528384
474, 1447454528394
513, 1447454528404
443, 1447454528415
514, 1447454528425
490, 1447454528436
460, 1447454528446
538, 1447454528457
465, 1447454528467
486, 1447454528478
533, 1447454528488
450, 1447454528499
524, 1447454528509
502, 1447454528519
459, 1447454528530
535, 1447454528540
467, 1447454528556
489, 1447454528561
527, 1447454528572
429, 1447454528582
482, 1447454528593
473, 1447454528603
450, 1447454528613
525, 1447454528624
475, 1447454528634
501, 1447454528645
541, 1447454528655
470, 1447454528665
535, 1447454528676
529, 1447454528690
480, 1447454528697
553, 1447454528708
476, 1447454528718
483, 1447454528727
542, 1447454528738
442, 1447454528748
523, 1447454528759
511, 1447454528769
452, 1447454528780
539, 1447454528790
479, 1447454528801
483, 1447454528811
554, 1447454528822
535, 1447454528832
567, 1447454528842
493, 1447454528855
420, 1447454528864
548, 1447454528875
508, 1447454528885
504, 1447454528895
554, 1447454528905
468, 1447454528915
524, 1447454528926
528, 1447454528938
476, 1447454528947
553, 1447454528957
499, 1447454528968
497, 1447454528978
555, 1447454528989
474, 1447454528999
530, 1447454529009
552, 1447454529021
488, 1447454529030
576, 1447454529044
532, 1447454529051
518, 1447454529062
578, 1447454529072
508, 1447454529083
538, 1447454529093
555, 1447454529104
475, 1447454529114
541, 1447454529124
486, 1447454529135
463, 1447454529145
529, 1447454529156
448, 1447454529166
496, 1447454529177
498, 1447454529187
430, 1447454529198
501, 1447454529208
469, 1447454529218
463, 1447454529229
538, 1447454529239
467, 1447454529250
497, 1447454529260
524, 1447454529272
458, 1447454529281
534, 1447454529294
496, 1447454529303
462, 1447454529312
541, 1447454529323
468, 1447454529333
496, 1447454529344
523, 1447454529354
454, 1447454529365
517, 1447454529375
488, 1447454529386
458, 1447454529396
527, 1447454529406
434, 1447454529417
452, 1447454529427
511, 1447454529439
432, 1447454529448
509, 1447454529459
495, 1447454529470
464, 1447454529480
537, 1447454529490
460, 1447454529501
499, 1447454529511
528, 1447454529522
444, 1447454529532
513, 1447454529542
491, 1447454529553
463, 1447454529563
549, 1447454529574
480, 1447454529584
563, 1447454529595
596, 1447454529605
458, 1447454529615
505, 1447454529626
525, 1447454529636
492, 1447454529647
553, 1447454529657
487, 1447454529668
500, 1447454529678
550, 1447454529689
466, 1447454529699
531, 1447454529709
536, 1447454529721
491, 1447454529730
574, 1447454529741
484, 1447454529751
504, 1447454529762
548, 1447454529772
469, 1447454529783
548, 1447454529792
559, 1447454529804
485, 1447454529814
580, 1447454529823
525, 1447454529834
523, 1447454529845
573, 1447454529856
484, 1447454529866
530, 1447454529877
526, 1447454529887
462, 1447454529897
522, 1447454529907
474, 1447454529917
484, 1447454529928
554, 1447454529939
472, 1447454529949
526, 1447454529959
521, 1447454529970
462, 1447454529981
545, 1447454529991
487, 1447454530001
482, 1447454530011
542, 1447454530022
481, 1447454530032
521, 1447454530043
517, 1447454530053
469, 1447454530064
538, 1447454530074
488, 1447454530085
482, 1447454530095
544, 1447454530106
471, 1447454530116
523, 1447454530126
530, 1447454530137
474, 1447454530147
548, 1447454530158
504, 1447454530168
485, 1447454530179
554, 1447454530189
475, 1447454530200
526, 1447454530210
547, 1447454530220
481, 1447454530231
551, 1447454530241
492, 1447454530252
488, 1447454530262
560, 1447454530273
469, 1447454530283
509, 1447454530294
532, 1447454530304
452, 1447454530315
491, 1447454530325
509, 1447454530335
439, 1447454530346
624, 1447454530356
475, 1447454530367
523, 1447454530377
749, 1447454530388
434, 1447454530398
483, 1447454530409
483, 1447454530419
531, 1447454530429
583, 1447454530440
462, 1447454530450
452, 1447454530477
495, 1447454530477
665, 1447454530482
531, 1447454530493
597, 1447454530503
533, 1447454530513
657, 1447454530523
506, 1447454530534
743, 1447454530544
599, 1447454530555
520, 1447454530565
786, 1447454530576
748, 1447454530586
785, 1447454530597
877, 1447454530607
739, 1447454530617
648, 1447454530628
810, 1447454530638
751, 1447454530649
772, 1447454530659
940, 1447454530670
696, 1447454530680
617, 1447454530691
656, 1447454530701
873, 1447454530711
997, 1447454530722
992, 1447454530732
785, 1447454530743
744, 1447454530753
648, 1447454530764
457, 1447454530774
315, 1447454530785
361, 1447454530795
153, 1447454530806
194, 1447454530816
185, 1447454530826
1003, 1447454530838
1000, 1447454530849
541, 1447454530860
222, 1447454530869
369, 1447454530880
148, 1447454530891
77, 1447454530901
114, 1447454530910
76, 1447454530920
56, 1447454530930
153, 1447454530940
60, 1447454530950
0, 1447454530957
0, 1447454530965
0, 1447454530974
0, 1447454530983
0, 1447454530990
51, 1447454531000
131, 1447454531011
135, 1447454531021
150, 1447454531031
172, 1447454531042
183, 1447454531053
180, 1447454531063
151, 1447454531073
133, 1447454531083
166, 1447454531096
279, 1447454531108
273, 1447454531115
301, 1447454531125
321, 1447454531136
368, 1447454531146
488, 1447454531157
421, 1447454531167
348, 1447454531177
406, 1447454531188
429, 1447454531198
344, 1447454531209
353, 1447454531219
384, 1447454531230
422, 1447454531240
341, 1447454531251
391, 1447454531261
470, 1447454531272
496, 1447454531282
531, 1447454531292
500, 1447454531303
495, 1447454531313
597, 1447454531324
549, 1447454531334
557, 1447454531345
523, 1447454531355
562, 1447454531366
672, 1447454531376
677, 1447454531386
651, 1447454531397
710, 1447454531407
655, 1447454531418
617, 1447454531428
626, 1447454531439
539, 1447454531449
549, 1447454531462
546, 1447454531470
478, 1447454531481
565, 1447454531491
481, 1447454531501
463, 1447454531512
547, 1447454531522
384, 1447454531533
483, 1447454531543
508, 1447454531554
452, 1447454531564
538, 1447454531575
476, 1447454531585
476, 1447454531595
521, 1447454531607
445, 1447454531616
506, 1447454531627
556, 1447454531637
584, 1447454531655
480, 1447454531658
1001, 1447454531670
814, 1447454531680
553, 1447454531690
518, 1447454531701
515, 1447454531711
512, 1447454531722
430, 1447454531733
519, 1447454531743
402, 1447454531753
144, 1447454531764
0, 1447454531773
6, 1447454531780
256, 1447454531791
431, 1447454531801
336, 1447454531812
407, 1447454531822
395, 1447454531833
543, 1447454531843
330, 1447454531853
448, 1447454531864
729, 1447454531874
540, 1447454531885
624, 1447454531895
760, 1447454531906
730, 1447454531916
739, 1447454531927
557, 1447454531937
493, 1447454531948
563, 1447454531958
596, 1447454531967
547, 1447454531979
456, 1447454531988
552, 1447454532000
519, 1447454532009
671, 1447454532021
617, 1447454532030
678, 1447454532041
524, 1447454532052
512, 1447454532062
635, 1447454532072
505, 1447454532082
555, 1447454532093
582, 1447454532104
493, 1447454532114
499, 1447454532124
527, 1447454532135
485, 1447454532145
535, 1447454532155
457, 1447454532166
510, 1447454532176
522, 1447454532188
448, 1447454532197
467, 1447454532208
357, 1447454532219
377, 1447454532229
455, 1447454532239
365, 1447454532251
395, 1447454532260
425, 1447454532270
377, 1447454532281
384, 1447454532291
332, 1447454532312
334, 1447454532313
482, 1447454532323
420, 1447454532333
490, 1447454532344
425, 1447454532355
389, 1447454532364
486, 1447454532375
379, 1447454532385
386, 1447454532396
330, 1447454532406
150, 1447454532417
333, 1447454532427
468, 1447454532438
351, 1447454532448
463, 1447454532459
465, 1447454532469
416, 1447454532479
510, 1447454532490
398, 1447454532500
457, 1447454532511
500, 1447454532521
427, 1447454532532
536, 1447454532542
489, 1447454532553
430, 1447454532563
497, 1447454532573
393, 1447454532584
465, 1447454532594
488, 1447454532605
408, 1447454532615
432, 1447454532626
445, 1447454532636
354, 1447454532647
447, 1447454532657
381, 1447454532667
432, 1447454532678
490, 1447454532688
393, 1447454532699
463, 1447454532709
463, 1447454532720
538, 1447454532730
535, 1447454532741
373, 1447454532751
408, 1447454532762
446, 1447454532772
323, 1447454532782
381, 1447454532793
364, 1447454532803
283, 1447454532814
352, 1447454532824
250, 1447454532835
210, 1447454532845
395, 1447454532856
104, 1447454532866
226, 1447454532876
229, 1447454532891
171, 1447454532897
304, 1447454532908
207, 1447454532918
212, 1447454532929
257, 1447454532939
302, 1447454532950
242, 1447454532960
197, 1447454532970
211, 1447454532980
302, 1447454532991
199, 1447454533003
210, 1447454533012
231, 1447454533022
0, 1447454533030
51, 1447454533039
108, 1447454533051
224, 1447454533060
74, 1447454533070
18, 1447454533079
129, 1447454533091
98, 1447454533099
113, 1447454533109
155, 1447454533120
43, 1447454533129
165, 1447454533140
145, 1447454533150
144, 1447454533161
203, 1447454533171
161, 1447454533182
97, 1447454533191
185, 1447454533203
314, 1447454533212
279, 1447454533222
208, 1447454533233
269, 1447454533244
259, 1447454533256
112, 1447454533267
109, 1447454533279
162, 1447454533290
104, 1447454533302
118, 1447454533313
176, 1447454533325
161, 1447454533337
65, 1447454533347
126, 1447454533358
102, 1447454533370
48, 1447454533380
182, 1447454533392
175, 1447454533403
173, 1447454533415
271, 1447454533426
271, 1447454533438
189, 1447454533449
306, 1447454533461
288, 1447454533472
264, 1447454533484
333, 1447454533499
409, 1447454533506
345, 1447454533518
361, 1447454533530
524, 1447454533541
495, 1447454533552
587, 1447454533564
663, 1447454533575
502, 1447454533587
446, 1447454533598
568, 1447454533610
567, 1447454533621
493, 1447454533633
550, 1447454533644
607, 1447454533656
527, 1447454533667
561, 1447454533679
719, 1447454533690
625, 1447454533702
717, 1447454533713
852, 1447454533725
736, 1447454533736
577, 1447454533748
495, 1447454533759
511, 1447454533772
560, 1447454533782
545, 1447454533794
636, 1447454533805
471, 1447454533817
547, 1447454533828
364, 1447454533840
133, 1447454533851
488, 1447454533863
718, 1447454533874
644, 1447454533886
685, 1447454533897
657, 1447454533909
476, 1447454533920
686, 1447454533932
526, 1447454533943
575, 1447454533955
762, 1447454533966
887, 1447454533978
847, 1447454533989
751, 1447454534001
792, 1447454534012
651, 1447454534024
610, 1447454534035
647, 1447454534046
735, 1447454534058
695, 1447454534070
574, 1447454534081
890, 1447454534093
828, 1447454534104
760, 1447454534116
969, 1447454534127
955, 1447454534139
1000, 1447454534150
1001, 1447454534164
1003, 1447454534175
996, 1447454534187
920, 1447454534198
872, 1447454534210
541, 1447454534221
530, 1447454534233
324, 1447454534244
198, 1447454534256
258, 1447454534267
628, 1447454534279
707, 1447454534290
663, 1447454534302
715, 1447454534313
824, 1447454534325
737, 1447454534337
643, 1447454534348
686, 1447454534359
732, 1447454534371
699, 1447454534382
691, 1447454534394
721, 1447454534405
679, 1447454534417
763, 1447454534428
794, 1447454534440
726, 1447454534451
559, 1447454534463
737, 1447454534474
651, 1447454534486
672, 1447454534497
712, 1447454534509
598, 1447454534520
479, 1447454534532
602, 1447454534543
515, 1447454534555
441, 1447454534566
593, 1447454534577
819, 1447454534589
847, 1447454534600
822, 1447454534612
766, 1447454534623
548, 1447454534635
587, 1447454534646
728, 1447454534658
597, 1447454534669
530, 1447454534681
501, 1447454534693
436, 1447454534704
395, 1447454534715
370, 1447454534727
406, 1447454534738
337, 1447454534750
480, 1447454534761
314, 1447454534773
316, 1447454534784
359, 1447454534796
426, 1447454534807
373, 1447454534820
411, 1447454534830
505, 1447454534842
476, 1447454534853
429, 1447454534865
516, 1447454534876
492, 1447454534888
402, 1447454534899
520, 1447454534911
533, 1447454534922
412, 1447454534934
486, 1447454534945
534, 1447454534957
431, 1447454534968
445, 1447454534980
489, 1447454534991
535, 1447454535003
469, 1447454535014
506, 1447454535026
395, 1447454535037
426, 1447454535049
489, 1447454535059
419, 1447454535071
522, 1447454535082
363, 1447454535095
661, 1447454535106
435, 1447454535117
388, 1447454535130
499, 1447454535141
448, 1447454535152
600, 1447454535164
394, 1447454535174
530, 1447454535187
370, 1447454535197
406, 1447454535210
437, 1447454535220
385, 1447454535233
398, 1447454535243
405, 1447454535255
343, 1447454535266
375, 1447454535281
439, 1447454535289
359, 1447454535302
393, 1447454535312
432, 1447454535323
441, 1447454535335
465, 1447454535346
524, 1447454535358
511, 1447454535369
521, 1447454535381
626, 1447454535393
599, 1447454535404
612, 1447454535415
717, 1447454535427
646, 1447454535438
649, 1447454535450
698, 1447454535461
706, 1447454535473
633, 1447454535484
709, 1447454535496
732, 1447454535507
784, 1447454535519
696, 1447454535530
779, 1447454535542
748, 1447454535553
737, 1447454535565
800, 1447454535576
810, 1447454535588
753, 1447454535599
804, 1447454535611
694, 1447454535622
728, 1447454535634
704, 1447454535645
759, 1447454535657
692, 1447454535668
712, 1447454535680
740, 1447454535691
693, 1447454535704
702, 1447454535714
757, 1447454535726
751, 1447454535737
712, 1447454535749
749, 1447454535760
767, 1447454535773
701, 1447454535783
762, 1447454535795
769, 1447454535806
716, 1447454535818
689, 1447454535829
705, 1447454535844
657, 1447454535852
628, 1447454535864
726, 1447454535875
664, 1447454535889
672, 1447454535903
699, 1447454535910
686, 1447454535921
577, 1447454535933
684, 1447454535944
1001, 1447454535957
1000, 1447454535971
550, 1447454535981
761, 1447454535992
394, 1447454536004
325, 1447454536015
0, 1447454536025
110, 1447454536036
788, 1447454536048
709, 1447454536060
758, 1447454536071
711, 1447454536082
803, 1447454536094
726, 1447454536105
559, 1447454536117
536, 1447454536128
651, 1447454536139
400, 1447454536151
207, 1447454536162
466, 1447454536174
631, 1447454536189
671, 1447454536197
965, 1447454536208
1003, 1447454536221
1002, 1447454536234
813, 1447454536245
496, 1447454536256
162, 1447454536267
298, 1447454536279
512, 1447454536290
996, 1447454536302
594, 1447454536313
588, 1447454536324
418, 1447454536336
140, 1447454536347
0, 1447454536358
0, 1447454536366
0, 1447454536376
0, 1447454536386
484, 1447454536397
444, 1447454536408
455, 1447454536420
429, 1447454536431
531, 1447454536443
732, 1447454536454
717, 1447454536466
525, 1447454536477
532, 1447454536489
462, 1447454536502
410, 1447454536516
417, 1447454536523
119, 1447454536534
69, 1447454536545
232, 1447454536556
0, 1447454536566
189, 1447454536577
594, 1447454536589
451, 1447454536600
595, 1447454536612
405, 1447454536623
320, 1447454536635
74, 1447454536645
0, 1447454536655
9, 1447454536664
191, 1447454536676
404, 1447454536687
310, 1447454536699
400, 1447454536710
310, 1447454536721
253, 1447454536733
105, 1447454536744
534, 1447454536756
577, 1447454536767
633, 1447454536779
520, 1447454536790
434, 1447454536802
445, 1447454536813
490, 1447454536825
464, 1447454536836
345, 1447454536848
334, 1447454536859
415, 1447454536871
424, 1447454536882
542, 1447454536894
626, 1447454536905
532, 1447454536917
589, 1447454536928
550, 1447454536940
536, 1447454536951
538, 1447454536963
526, 1447454536974
476, 1447454536986
510, 1447454536997
541, 1447454537009
575, 1447454537020
495, 1447454537032
530, 1447454537043
508, 1447454537055
438, 1447454537066
496, 1447454537080
496, 1447454537090
421, 1447454537101
421, 1447454537112
483, 1447454537124
383, 1447454537136
319, 1447454537147
436, 1447454537158
387, 1447454537170
427, 1447454537181
524, 1447454537193
549, 1447454537204
516, 1447454537216
524, 1447454537227
490, 1447454537239
398, 1447454537250
444, 1447454537262
471, 1447454537273
444, 1447454537285
477, 1447454537296
529, 1447454537308
503, 1447454537319
521, 1447454537330
603, 1447454537342
559, 1447454537353
501, 1447454537364
547, 1447454537377
513, 1447454537387
485, 1447454537399
520, 1447454537411
537, 1447454537422
472, 1447454537433
490, 1447454537446
535, 1447454537456
455, 1447454537469
484, 1447454537479
533, 1447454537491
477, 1447454537502
479, 1447454537514
516, 1447454537525
517, 1447454537537
478, 1447454537548
541, 1447454537559
565, 1447454537571
436, 1447454537582
418, 1447454537594
447, 1447454537605
389, 1447454537617
478, 1447454537628
500, 1447454537640
544, 1447454537651
455, 1447454537663
539, 1447454537674
522, 1447454537688
512, 1447454537698
578, 1447454537710
572, 1447454537720
553, 1447454537732
614, 1447454537743
584, 1447454537755
557, 1447454537766
573, 1447454537778
651, 1447454537789
664, 1447454537801
615, 1447454537812
609, 1447454537824
598, 1447454537836
573, 1447454537847
608, 1447454537858
553, 1447454537870
499, 1447454537881
564, 1447454537893
536, 1447454537904
453, 1447454537916
449, 1447454537927
379, 1447454537939
394, 1447454537950
490, 1447454537962
999, 1447454537973
998, 1447454537985
982, 1447454537996
778, 1447454538008
892, 1447454538019
893, 1447454538031
875, 1447454538042
1001, 1447454538055
1003, 1447454538067
1003, 1447454538080
1002, 1447454538092
1000, 1447454538105
1002, 1447454538117
1003, 1447454538130
1003, 1447454538142
1001, 1447454538162
997, 1447454538167
882, 1447454538178
771, 1447454538189
501, 1447454538201
461, 1447454538212
485, 1447454538224
342, 1447454538236
275, 1447454538247
325, 1447454538258
348, 1447454538270
451, 1447454538283
562, 1447454538293
588, 1447454538304
649, 1447454538316
763, 1447454538327
786, 1447454538339
791, 1447454538349
995, 1447454538362
995, 1447454538372
999, 1447454538384
1001, 1447454538396
1002, 1447454538409
1003, 1447454538421
1004, 1447454538434
1004, 1447454538448
1004, 1447454538460
1004, 1447454538472
1004, 1447454538484
1004, 1447454538497
1004, 1447454538510
1004, 1447454538522
1004, 1447454538534
1005, 1447454538547
1004, 1447454538559
1005, 1447454538572
1004, 1447454538584
1004, 1447454538597
1004, 1447454538610
1004, 1447454538622
1005, 1447454538635
1005, 1447454538647
1004, 1447454538660
1004, 1447454538672
1004, 1447454538688
1000, 1447454538697
462, 1447454538709
120, 1447454538720
0, 1447454538730
0, 1447454538739
0, 1447454538749
0, 1447454538758
0, 1447454538767
0, 1447454538777
0, 1447454538786
0, 1447454538796
0, 1447454538805
0, 1447454538814
0, 1447454538824
0, 1447454538833
0, 1447454538843
0, 1447454538852
0, 1447454538861
0, 1447454538871
0, 1447454538880
0, 1447454538890
0, 1447454538899
0, 1447454538908
0, 1447454538918
0, 1447454538927
0, 1447454538937
0, 1447454538946
0, 1447454538972
0, 1447454538972
0, 1447454538974
0, 1447454538984
0, 1447454538993
0, 1447454539002
0, 1447454539012
0, 1447454539021
0, 1447454539031
0, 1447454539040
0, 1447454539049
0, 1447454539059
0, 1447454539068
0, 1447454539078
0, 1447454539087
0, 1447454539096
0, 1447454539106
0, 1447454539115
0, 1447454539125
0, 1447454539134
0, 1447454539143
0, 1447454539153
0, 1447454539162
0, 1447454539172
0, 1447454539181
0, 1447454539190
0, 1447454539200
0, 1447454539209
0, 1447454539220
0, 1447454539228
0, 1447454539237
0, 1447454539247
0, 1447454539256
0, 1447454539266
0, 1447454539275
0, 1447454539284
18, 1447454539295
135, 1447454539306
75, 1447454539317
106, 1447454539328
130, 1447454539340
74, 1447454539350
70, 1447454539361
78, 1447454539371
42, 1447454539382
97, 1447454539392
52, 1447454539403
0, 1447454539412
13, 1447454539421
0, 1447454539432
68, 1447454539441
71, 1447454539453
79, 1447454539462
153, 1447454539475
185, 1447454539486
234, 1447454539498
305, 1447454539510
333, 1447454539523
361, 1447454539531
430, 1447454539544
495, 1447454539554
617, 1447454539566
543, 1447454539578
516, 1447454539589
524, 1447454539601
482, 1447454539613
513, 1447454539623
488, 1447454539636
498, 1447454539646
533, 1447454539657
529, 1447454539669
536, 1447454539680
590, 1447454539692
581, 1447454539703
555, 1447454539715
604, 1447454539726
602, 1447454539738
552, 1447454539749
548, 1447454539761
646, 1447454539773
582, 1447454539784
615, 1447454539795
708, 1447454539807
729, 1447454539818
782, 1447454539830
771, 1447454539841
676, 1447454539853
670, 1447454539864
741, 1447454539876
834, 1447454539887
814, 1447454539899
790, 1447454539910
704, 1447454539922
664, 1447454539933
700, 1447454539945
736, 1447454539956
708, 1447454539968
668, 1447454539979
721, 1447454539991
708, 1447454540002
714, 1447454540014
775, 1447454540025
745, 1447454540037
722, 1447454540048
766, 1447454540060
762, 1447454540071
700, 1447454540083
742, 1447454540097
736, 1447454540109
662, 1447454540117
662, 1447454540129
706, 1447454540140
656, 1447454540153
650, 1447454540163
694, 1447454540175
639, 1447454540191
615, 1447454540198
678, 1447454540209
660, 1447454540221
619, 1447454540232
661, 1447454540244
669, 1447454540255
628, 1447454540267
665, 1447454540278
690, 1447454540290
630, 1447454540301
628, 1447454540313
669, 1447454540324
618, 1447454540336
614, 1447454540347
673, 1447454540359
647, 1447454540370
590, 1447454540382
638, 1447454540393
610, 1447454540405
545, 1447454540416
612, 1447454540428
635, 1447454540439
583, 1447454540451
624, 1447454540462
617, 1447454540473
539, 1447454540485
571, 1447454540496
618, 1447454540508
585, 1447454540519
557, 1447454540530
614, 1447454540542
576, 1447454540553
540, 1447454540564
667, 1447454540576
610, 1447454540588
503, 1447454540599
573, 1447454540610
647, 1447454540622
576, 1447454540633
579, 1447454540645
619, 1447454540656
549, 1447454540669
549, 1447454540679
598, 1447454540691
551, 1447454540702
536, 1447454540716
585, 1447454540725
573, 1447454540737
520, 1447454540748
576, 1447454540760
578, 1447454540771
519, 1447454540783
573, 1447454540794
579, 1447454540806
517, 1447454540817
529, 1447454540829
560, 1447454540840
499, 1447454540852
477, 1447454540863
524, 1447454540875
479, 1447454540886
444, 1447454540898
499, 1447454540909
475, 1447454540921
432, 1447454540932
440, 1447454540944
464, 1447454540955
405, 1447454540967
427, 1447454540978
468, 1447454540990
403, 1447454541001
408, 1447454541013
452, 1447454541024
385, 1447454541036
350, 1447454541047
461, 1447454541059
463, 1447454541070
473, 1447454541082
456, 1447454541093
480, 1447454541105
214, 1447454541116
411, 1447454541128
489, 1447454541139
329, 1447454541151
384, 1447454541162
477, 1447454541174
404, 1447454541185
375, 1447454541197
443, 1447454541208
395, 1447454541220
342, 1447454541231
317, 1447454541243
239, 1447454541254
188, 1447454541266
248, 1447454541277
294, 1447454541289
284, 1447454541300
354, 1447454541313
450, 1447454541323
445, 1447454541335
385, 1447454541346
430, 1447454541358
443, 1447454541369
482, 1447454541381
528, 1447454541392
410, 1447454541403
380, 1447454541415
399, 1447454541426
394, 1447454541438
348, 1447454541449
394, 1447454541461
431, 1447454541472
402, 1447454541484
439, 1447454541495
487, 1447454541507
443, 1447454541518
459, 1447454541530
539, 1447454541541
532, 1447454541552
543, 1447454541563
603, 1447454541576
538, 1447454541587
468, 1447454541598
504, 1447454541610
486, 1447454541622
420, 1447454541632
442, 1447454541644
452, 1447454541655
393, 1447454541667
405, 1447454541678
446, 1447454541691
394, 1447454541705
403, 1447454541714
469, 1447454541725
447, 1447454541737
422, 1447454541747
501, 1447454541760
501, 1447454541770
469, 1447454541782
512, 1447454541795
522, 1447454541806
477, 1447454541816
524, 1447454541828
554, 1447454541839
515, 1447454541852
504, 1447454541862
538, 1447454541874
488, 1447454541885
473, 1447454541897
519, 1447454541908
478, 1447454541920
430, 1447454541932
482, 1447454541943
461, 1447454541954
389, 1447454541966
415, 1447454541977
439, 1447454541989
371, 1447454542000
395, 1447454542012
430, 1447454542025
374, 1447454542035
383, 1447454542048
432, 1447454542058
406, 1447454542069
434, 1447454542095
464, 1447454542095
365, 1447454542104
347, 1447454542115
452, 1447454542126
463, 1447454542138
406, 1447454542149
442, 1447454542161
485, 1447454542175
442, 1447454542184
471, 1447454542195
518, 1447454542207
472, 1447454542218
476, 1447454542230
543, 1447454542241
511, 1447454542253
480, 1447454542264
565, 1447454542276
505, 1447454542287
487, 1447454542299
538, 1447454542310
570, 1447454542322
523, 1447454542333
547, 1447454542345
585, 1447454542356
520, 1447454542368
510, 1447454542379
572, 1447454542391
539, 1447454542403
508, 1447454542414
559, 1447454542430
554, 1447454542437
497, 1447454542448
561, 1447454542460
592, 1447454542471
559, 1447454542483
589, 1447454542494
613, 1447454542506
561, 1447454542517
561, 1447454542529
619, 1447454542540
565, 1447454542555
552, 1447454542563
600, 1447454542575
583, 1447454542586
562, 1447454542598
633, 1447454542609
592, 1447454542621
538, 1447454542632
594, 1447454542644
589, 1447454542655
520, 1447454542666
570, 1447454542677
609, 1447454542693
526, 1447454542701
501, 1447454542712
572, 1447454542724
765, 1447454542736
703, 1447454542746
773, 1447454542759
666, 1447454542770
550, 1447454542781
555, 1447454542792
575, 1447454542805
543, 1447454542815
614, 1447454542828
651, 1447454542839
587, 1447454542851
608, 1447454542861
710, 1447454542874
668, 1447454542885
661, 1447454542896
597, 1447454542908
302, 1447454542921
114, 1447454542930
849, 1447454542942
615, 1447454542954
592, 1447454542964
667, 1447454542976
687, 1447454542987
615, 1447454542999
652, 1447454543010
687, 1447454543024
618, 1447454543037
632, 1447454543045
673, 1447454543057
605, 1447454543068
586, 1447454543079
631, 1447454543091
547, 1447454543103
547, 1447454543114
640, 1447454543125
627, 1447454543137
587, 1447454543148
662, 1447454543160
694, 1447454543171
601, 1447454543183
610, 1447454543194
646, 1447454543206
581, 1447454543217
592, 1447454543229
657, 1447454543240
618, 1447454543253
451, 1447454543263
572, 1447454543275
549, 1447454543286
512, 1447454543298
594, 1447454543309
604, 1447454543321
544, 1447454543332
605, 1447454543344
622, 1447454543356
552, 1447454543367
583, 1447454543378
626, 1447454543390
572, 1447454543401
567, 1447454543413
613, 1447454543424
553, 1447454543436
533, 1447454543447
597, 1447454543459
591, 1447454543470
541, 1447454543482
597, 1447454543493
602, 1447454543505
541, 1447454543516
576, 1447454543528
627, 1447454543539
610, 1447454543551
554, 1447454543562
566, 1447454543574
542, 1447454543586
565, 1447454543597
615, 1447454543608
564, 1447454543620
524, 1447454543631
584, 1447454543643
577, 1447454543654
527, 1447454543666
571, 1447454543677
583, 1447454543689
501, 1447454543700
498, 1447454543711
553, 1447454543723
504, 1447454543734
521, 1447454543746
579, 1447454543757
536, 1447454543768
515, 1447454543779
569, 1447454543792
540, 1447454543804
490, 1447454543815
538, 1447454543826
526, 1447454543837
466, 1447454543848
511, 1447454543861
533, 1447454543872
463, 1447454543883
491, 1447454543894
541, 1447454543906
486, 1447454543917
486, 1447454543930
538, 1447454543940
498, 1447454543952
471, 1447454543963
538, 1447454543975
517, 1447454543987
468, 1447454543998
533, 1447454544011
543, 1447454544021
482, 1447454544032
522, 1447454544044
556, 1447454544057
496, 1447454544067
516, 1447454544078
563, 1447454544090
505, 1447454544101
494, 1447454544113
576, 1447454544124
551, 1447454544136
505, 1447454544147
559, 1447454544159
571, 1447454544170
511, 1447454544182
531, 1447454544193
551, 1447454544205
474, 1447454544216
501, 1447454544228
556, 1447454544239
487, 1447454544251
514, 1447454544262
573, 1447454544274
457, 1447454544285
418, 1447454544297
540, 1447454544308
522, 1447454544320
467, 1447454544331
512, 1447454544343
534, 1447454544354
480, 1447454544366
353, 1447454544377
507, 1447454544389
471, 1447454544400
504, 1447454544412
546, 1447454544423
490, 1447454544435
506, 1447454544446
562, 1447454544458
526, 1447454544473
508, 1447454544481
577, 1447454544492
557, 1447454544505
507, 1447454544515
547, 1447454544526
542, 1447454544538
478, 1447454544549
503, 1447454544563
537, 1447454544572
465, 1447454544584
483, 1447454544595
533, 1447454544607
479, 1447454544618
469, 1447454544630
532, 1447454544641
498, 1447454544654
464, 1447454544664
523, 1447454544676
551, 1447454544695
466, 1447454544699
475, 1447454544710
524, 1447454544722
465, 1447454544733
494, 1447454544745
535, 1447454544756
479, 1447454544768
479, 1447454544779
542, 1447454544791
475, 1447454544804
467, 1447454544814
540, 1447454544825
508, 1447454544837
468, 1447454544847
525, 1447454544859
525, 1447454544870
476, 1447454544884
510, 1447454544894
535, 1447454544905
467, 1447454544916
485, 1447454544929
533, 1447454544940
474, 1447454544952
479, 1447454544963
534, 1447454544975
486, 1447454544986
477, 1447454545000
597, 1447454545008
506, 1447454545020
407, 1447454545031
503, 1447454545043
536, 1447454545054
456, 1447454545066
490, 1447454545077
526, 1447454545089
459, 1447454545100
468, 1447454545113
531, 1447454545123
478, 1447454545137
464, 1447454545148
531, 1447454545158
498, 1447454545171
452, 1447454545181
520, 1447454545193
521, 1447454545205
464, 1447454545215
522, 1447454545227
543, 1447454545238
476, 1447454545249
501, 1447454545261
548, 1447454545273
480, 1447454545284
471, 1447454545295
528, 1447454545307
482, 1447454545318
454, 1447454545335
522, 1447454545341
498, 1447454545353
454, 1447454545364
512, 1447454545376
513, 1447454545387
455, 1447454545399
497, 1447454545410
527, 1447454545422
459, 1447454545433
483, 1447454545445
532, 1447454545456
469, 1447454545468
466, 1447454545479
521, 1447454545491
481, 1447454545502
454, 1447454545514
520, 1447454545525
494, 1447454545538
446, 1447454545549
501, 1447454545560
514, 1447454545571
443, 1447454545583
486, 1447454545594
496, 1447454545606
455, 1447454545617
464, 1447454545629
522, 1447454545640
462, 1447454545652
433, 1447454545663
496, 1447454545675
467, 1447454545687
434, 1447454545698
495, 1447454545709
487, 1447454545721
441, 1447454545733
488, 1447454545744
543, 1447454545755
533, 1447454545767
471, 1447454545778
464, 1447454545790
451, 1447454545801
476, 1447454545813
518, 1447454545824
476, 1447454545836
458, 1447454545847
516, 1447454545859
499, 1447454545870
461, 1447454545882
516, 1447454545897
525, 1447454545905
470, 1447454545916
514, 1447454545928
549, 1447454545938
485, 1447454545951
511, 1447454545962
565, 1447454545974
511, 1447454545984
512, 1447454545995
566, 1447454546007
523, 1447454546019
485, 1447454546030
533, 1447454546041
511, 1447454546053
459, 1447454546065
502, 1447454546077
513, 1447454546088
456, 1447454546099
485, 1447454546114
518, 1447454546122
457, 1447454546133
471, 1447454546145
528, 1447454546156
478, 1447454546169
466, 1447454546179
524, 1447454546191
492, 1447454546203
461, 1447454546214
519, 1447454546225
516, 1447454546237
465, 1447454546248
505, 1447454546261
528, 1447454546271
472, 1447454546283
494, 1447454546295
539, 1447454546306
489, 1447454546317
483, 1447454546329
543, 1447454546340
501, 1447454546354
479, 1447454546368
540, 1447454546375
525, 1447454546387
482, 1447454546398
534, 1447454546410
527, 1447454546421
466, 1447454546432
504, 1447454546449
534, 1447454546458
471, 1447454546467
489, 1447454546478
538, 1447454546490
480, 1447454546501
471, 1447454546513
530, 1447454546524
530, 1447454546537
538, 1447454546547
505, 1447454546559
470, 1447454546570
467, 1447454546582
530, 1447454546593
534, 1447454546609
468, 1447454546616
502, 1447454546628
538, 1447454546643
481, 1447454546651
491, 1447454546662
546, 1447454546674
499, 1447454546686
487, 1447454546697
546, 1447454546708
520, 1447454546720
490, 1447454546731
547, 1447454546743
551, 1447454546754
498, 1447454546766
538, 1447454546777
565, 1447454546789
496, 1447454546800
518, 1447454546812
550, 1447454546823
483, 1447454546834
477, 1447454546846
532, 1447454546857
490, 1447454546870
465, 1447454546880
526, 1447454546892
501, 1447454546903
455, 1447454546915
513, 1447454546926
527, 1447454546938
462, 1447454546949
502, 1447454546961
535, 1447454546972
472, 1447454546984
490, 1447454546995
538, 1447454547007
483, 1447454547019
470, 1447454547030
529, 1447454547041
491, 1447454547056
460, 1447454547063
521, 1447454547075
507, 1447454547086
457, 1447454547099
507, 1447454547109
534, 1447454547121
469, 1447454547132
504, 1447454547145
549, 1447454547155
494, 1447454547167
504, 1447454547178
558, 1447454547195
518, 1447454547202
496, 1447454547214
552, 1447454547224
523, 1447454547236
489, 1447454547247
547, 1447454547259
550, 1447454547270
489, 1447454547282
539, 1447454547293
565, 1447454547305
503, 1447454547316
544, 1447454547328
649, 1447454547339
546, 1447454547351
486, 1447454547362
562, 1447454547375
563, 1447454547385
527, 1447454547397
575, 1447454547408
552, 1447454547420
508, 1447454547431
558, 1447454547443
566, 1447454547454
511, 1447454547466
548, 1447454547477
576, 1447454547489
513, 1447454547504
519, 1447454547512
577, 1447454547523
522, 1447454547535
517, 1447454547546
579, 1447454547558
546, 1447454547569
507, 1447454547580
556, 1447454547592
546, 1447454547603
477, 1447454547615
523, 1447454547626
533, 1447454547638
464, 1447454547650
486, 1447454547661
525, 1447454547672
465, 1447454547684
454, 1447454547701
523, 1447454547707
463, 1447454547718
455, 1447454547730
539, 1447454547741
588, 1447454547754
513, 1447454547767
519, 1447454547776
563, 1447454547788
456, 1447454547799
488, 1447454547810
521, 1447454547822
456, 1447454547833
477, 1447454547846
527, 1447454547856
465, 1447454547868
466, 1447454547879
532, 1447454547891
489, 1447454547903
464, 1447454547914
530, 1447454547925
516, 1447454547937
467, 1447454547948
528, 1447454547960
530, 1447454547971
463, 1447454547983
488, 1447454547994
524, 1447454548006
466, 1447454548017
471, 1447454548031
520, 1447454548040
464, 1447454548052
453, 1447454548063
514, 1447454548075
473, 1447454548087
440, 1447454548098
497, 1447454548109
496, 1447454548121
425, 1447454548132
505, 1447454548144
596, 1447454548155
449, 1447454548167
442, 1447454548180
537, 1447454548200
498, 1447454548200
484, 1447454548213
510, 1447454548224
478, 1447454548236
460, 1447454548247
520, 1447454548258
498, 1447454548276
454, 1447454548282
514, 1447454548293
527, 1447454548303
478, 1447454548315
521, 1447454548326
561, 1447454548338
500, 1447454548349
526, 1447454548362
576, 1447454548374
519, 1447454548390
502, 1447454548395
560, 1447454548407
512, 1447454548418
470, 1447454548430
526, 1447454548442
505, 1447454548454
451, 1447454548464
498, 1447454548476
516, 1447454548487
459, 1447454548499
487, 1447454548510
517, 1447454548522
450, 1447454548533
457, 1447454548545
519, 1447454548557
464, 1447454548570
454, 1447454548588
517, 1447454548591
489, 1447454548603
452, 1447454548614
509, 1447454548625
509, 1447454548638
453, 1447454548665
498, 1447454548665
522, 1447454548671
454, 1447454548683
478, 1447454548694
519, 1447454548707
463, 1447454548717
455, 1447454548729
511, 1447454548740
470, 1447454548754
447, 1447454548763
515, 1447454548776
502, 1447454548787
460, 1447454548798
515, 1447454548810
529, 1447454548821
468, 1447454548832
507, 1447454548844
528, 1447454548855
465, 1447454548867
481, 1447454548878
532, 1447454548890
483, 1447454548901
473, 1447454548913
532, 1447454548924
506, 1447454548936
473, 1447454548947
536, 1447454548959
564, 1447454548970
550, 1447454548982
514, 1447454548993
500, 1447454549005
495, 1447454549016
540, 1447454549027
569, 1447454549039
504, 1447454549050
514, 1447454549062
568, 1447454549073
524, 1447454549085
511, 1447454549096
572, 1447454549108
546, 1447454549119
508, 1447454549131
565, 1447454549142
567, 1447454549154
510, 1447454549165
558, 1447454549177
591, 1447454549188
531, 1447454549200
555, 1447454549216
600, 1447454549223
542, 1447454549234
526, 1447454549246
576, 1447454549257
524, 1447454549269
490, 1447454549280
546, 1447454549291
530, 1447454549303
480, 1447454549315
532, 1447454549326
546, 1447454549338
488, 1447454549359
523, 1447454549361
563, 1447454549371
497, 1447454549384
511, 1447454549394
560, 1447454549406
512, 1447454549418
497, 1447454549430
553, 1447454549441
520, 1447454549454
482, 1447454549463
541, 1447454549475
528, 1447454549487
470, 1447454549498
518, 1447454549510
538, 1447454549521
475, 1447454549533
502, 1447454549544
541, 1447454549555
482, 1447454549568
488, 1447454549578
552, 1447454549590
506, 1447454549601
490, 1447454549613
553, 1447454549624
532, 1447454549637
487, 1447454549647
542, 1447454549659
532, 1447454549670
472, 1447454549682
515, 1447454549693
544, 1447454549705
480, 1447454549716
500, 1447454549728
548, 1447454549739
489, 1447454549751
484, 1447454549762
573, 1447454549774
586, 1447454549785
472, 1447454549797
494, 1447454549808
522, 1447454549820
490, 1447454549831
529, 1447454549842
532, 1447454549854
475, 1447454549865
512, 1447454549877
551, 1447454549888
491, 1447454549900
500, 1447454549911
555, 1447454549923
503, 1447454549934
493, 1447454549946
553, 1447454549957
524, 1447454549970
489, 1447454549980
553, 1447454549992
556, 1447454550003
501, 1447454550015
545, 1447454550028
564, 1447454550038
502, 1447454550049
513, 1447454550061
548, 1447454550072
482, 1447454550084
483, 1447454550095
538, 1447454550107
498, 1447454550118
473, 1447454550131
541, 1447454550141
521, 1447454550153
479, 1447454550164
544, 1447454550176
558, 1447454550187
502, 1447454550199
546, 1447454550210
577, 1447454550222
515, 1447454550233
532, 1447454550245
587, 1447454550256
527, 1447454550268
520, 1447454550279
583, 1447454550291
544, 1447454550302
509, 1447454550314
566, 1447454550325
553, 1447454550337
503, 1447454550348
550, 1447454550360
571, 1447454550371
506, 1447454550382
539, 1447454550394
577, 1447454550406
515, 1447454550416
525, 1447454550429
580, 1447454550440
532, 1447454550451
521, 1447454550462
580, 1447454550474
550, 1447454550485
509, 1447454550497
563, 1447454550508
561, 1447454550521
506, 1447454550531
537, 1447454550544
557, 1447454550554
496, 1447454550567
513, 1447454550577
561, 1447454550592
501, 1447454550608
497, 1447454550612
553, 1447454550623
509, 1447454550634
503, 1447454550646
620, 1447454550657
555, 1447454550670
441, 1447454550680
515, 1447454550694
560, 1447454550703
492, 1447454550715
521, 1447454550726
552, 1447454550738
487, 1447454550749
499, 1447454550762
554, 1447454550772
503, 1447454550784
491, 1447454550795
553, 1447454550807
516, 1447454550818
480, 1447454550830
540, 1447454550841
539, 1447454550853
492, 1447454550864
544, 1447454550876
563, 1447454550887
499, 1447454550899
525, 1447454550910
564, 1447454550922
493, 1447454550933
488, 1447454550945
531, 1447454550956
486, 1447454550968
464, 1447454550979
524, 1447454550991
492, 1447454551002
453, 1447454551014
498, 1447454551025
509, 1447454551043
448, 1447454551048
493, 1447454551060
522, 1447454551071
460, 1447454551083
475, 1447454551094
525, 1447454551106
463, 1447454551117
456, 1447454551129
517, 1447454551140
473, 1447454551152
446, 1447454551163
513, 1447454551175
487, 1447454551186
429, 1447454551198
478, 1447454551209
489, 1447454551221
433, 1447454551232
463, 1447454551244
502, 1447454551255
439, 1447454551267
456, 1447454551278
506, 1447454551290
454, 1447454551301
435, 1447454551313
501, 1447454551324
474, 1447454551336
435, 1447454551347
495, 1447454551359
495, 1447454551370
440, 1447454551382
484, 1447454551393
501, 1447454551405
433, 1447454551416
456, 1447454551428
497, 1447454551438
441, 1447454551449
448, 1447454551462
502, 1447454551473
460, 1447454551485
444, 1447454551496
507, 1447454551508
532, 1447454551518
474, 1447454551530
456, 1447454551542
457, 1447454551553
455, 1447454551564
499, 1447454551576
519, 1447454551587
451, 1447454551599
469, 1447454551611
518, 1447454551622
465, 1447454551633
462, 1447454551645
531, 1447454551657
492, 1447454551668
461, 1447454551679
523, 1447454551694
516, 1447454551703
465, 1447454551714
527, 1447454551725
540, 1447454551737
483, 1447454551748
521, 1447454551760
555, 1447454551771
490, 1447454551783
492, 1447454551806
536, 1447454551807
478, 1447454551817
459, 1447454551829
516, 1447454551840
486, 1447454551853
445, 1447454551863
507, 1447454551875
498, 1447454551886
448, 1447454551898
490, 1447454551909
512, 1447454551921
453, 1447454551932
483, 1447454551944
524, 1447454551955
466, 1447454551967
468, 1447454551978
523, 1447454551990
478, 1447454552001
458, 1447454552013
516, 1447454552025
497, 1447454552037
453, 1447454552047
504, 1447454552059
511, 1447454552070
451, 1447454552082
493, 1447454552093
523, 1447454552105
456, 1447454552116
478, 1447454552128
527, 1447454552139
472, 1447454552151
470, 1447454552162
530, 1447454552173
494, 1447454552185
466, 1447454552196
525, 1447454552208
517, 1447454552219
466, 1447454552231
520, 1447454552242
537, 1447454552254
476, 1447454552265
510, 1447454552277
555, 1447454552288
481, 1447454552300
483, 1447454552311
539, 1447454552323
483, 1447454552334
467, 1447454552346
524, 1447454552357
503, 1447454552369
460, 1447454552380
519, 1447454552392
519, 1447454552404
510, 1447454552415
569, 1447454552426
507, 1447454552438
429, 1447454552449
504, 1447454552461
558, 1447454552472
484, 1447454552484
480, 1447454552495
540, 1447454552507
501, 1447454552518
473, 1447454552530
531, 1447454552541
512, 1447454552553
467, 1447454552564
519, 1447454552576
532, 1447454552586
474, 1447454552598
515, 1447454552610
552, 1447454552621
492, 1447454552632
507, 1447454552645
557, 1447454552655
505, 1447454552667
490, 1447454552679
541, 1447454552691
498, 1447454552703
456, 1447454552714
508, 1447454552724
495, 1447454552737
442, 1447454552747
488, 1447454552759
504, 1447454552770
442, 1447454552783
467, 1447454552793
514, 1447454552805
458, 1447454552816
464, 1447454552828
526, 1447454552839
472, 1447454552851
451, 1447454552862
501, 1447454552874
474, 1447454552885
437, 1447454552897
493, 1447454552908
494, 1447454552919
437, 1447454552931
474, 1447454552943
502, 1447454552954
430, 1447454552965
448, 1447454552977
497, 1447454552989
443, 1447454553000
446, 1447454553011
503, 1447454553023
461, 1447454553034
433, 1447454553046
490, 1447454553057
470, 1447454553073
437, 1447454553080
481, 1447454553092
496, 1447454553103
436, 1447454553119
481, 1447454553126
519, 1447454553138
457, 1447454553149
483, 1447454553161
534, 1447454553172
490, 1447454553184
478, 1447454553195
536, 1447454553207
497, 1447454553218
449, 1447454553230
527, 1447454553241
522, 1447454553253
465, 1447454553264
510, 1447454553276
532, 1447454553287
468, 1447454553299
499, 1447454553310
576, 1447454553322
544, 1447454553333
459, 1447454553345
502, 1447454553356
501, 1447454553368
484, 1447454553379
535, 1447454553391
503, 1447454553402
472, 1447454553414
524, 1447454553425
527, 1447454553437
467, 1447454553448
523, 1447454553460
556, 1447454553471
497, 1447454553483
521, 1447454553494
588, 1447454553514
541, 1447454553517
540, 1447454553530
596, 1447454553540
561, 1447454553552
530, 1447454553563
582, 1447454553575
550, 1447454553586
482, 1447454553598
510, 1447454553609
514, 1447454553621
455, 1447454553632
463, 1447454553644
528, 1447454553655
450, 1447454553666
462, 1447454553678
513, 1447454553689
464, 1447454553701
462, 1447454553712
501, 1447454553723
481, 1447454553735
436, 1447454553747
498, 1447454553757
495, 1447454553770
447, 1447454553780
495, 1447454553792
514, 1447454553804
466, 1447454553815
494, 1447454553826
526, 1447454553838
479, 1447454553849
467, 1447454553861
525, 1447454553873
479, 1447454553884
451, 1447454553895
516, 1447454553907
499, 1447454553919
458, 1447454553930
507, 1447454553941
509, 1447454553953
430, 1447454553964
467, 1447454553976
494, 1447454553987
431, 1447454554000
462, 1447454554010
505, 1447454554022
468, 1447454554034
467, 1447454554045
521, 1447454554061
484, 1447454554070
444, 1447454554079
498, 1447454554091
471, 1447454554103
404, 1447454554114
445, 1447454554125
457, 1447454554137
403, 1447454554148
426, 1447454554160
468, 1447454554171
406, 1447454554183
421, 1447454554194
484, 1447454554206
422, 1447454554217
470, 1447454554229
496, 1447454554240
391, 1447454554252
353, 1447454554263
462, 1447454554275
459, 1447454554287
399, 1447454554298
446, 1447454554309
472, 1447454554321
429, 1447454554332
451, 1447454554344
499, 1447454554355
449, 1447454554367
457, 1447454554378
511, 1447454554390
467, 1447454554401
456, 1447454554413
530, 1447454554424
503, 1447454554436
464, 1447454554447
524, 1447454554459
541, 1447454554470
485, 1447454554482
518, 1447454554493
553, 1447454554509
483, 1447454554516
492, 1447454554527
532, 1447454554539
475, 1447454554550
496, 1447454554565
522, 1447454554573
487, 1447454554585
462, 1447454554596
512, 1447454554608
516, 1447454554620
461, 1447454554631
525, 1447454554642
536, 1447454554654
483, 1447454554665
504, 1447454554677
543, 1447454554689
489, 1447454554704
500, 1447454554711
545, 1447454554723
507, 1447454554734
482, 1447454554746
521, 1447454554757
565, 1447454554769
490, 1447454554780
522, 1447454554792
525, 1447454554803
486, 1447454554814
498, 1447454554826
643, 1447454554838
444, 1447454554848
475, 1447454554860
565, 1447454554871
528, 1447454554883
501, 1447454554894
571, 1447454554906
542, 1447454554917
478, 1447454554945
551, 1447454554945
543, 1447454554953
545, 1447454554963
546, 1447454554976
555, 1447454554986
480, 1447454554998
536, 1447454555010
575, 1447454555021
497, 1447454555032
571, 1447454555045
537, 1447454555057
524, 1447454555067
487, 1447454555078
604, 1447454555090
519, 1447454555101
509, 1447454555113
674, 1447454555124
521, 1447454555137
455, 1447454555147
556, 1447454555159
588, 1447454555170
533, 1447454555182
560, 1447454555193
607, 1447454555205
516, 1447454555216
535, 1447454555227
636, 1447454555239
511, 1447454555250
503, 1447454555263
599, 1447454555273
562, 1447454555287
527, 1447454555296
639, 1447454555308
566, 1447454555326
534, 1447454555331
583, 1447454555342
626, 1447454555354
555, 1447454555365
616, 1447454555378
581, 1447454555388
538, 1447454555400
528, 1447454555411
581, 1447454555423
534, 1447454555434
510, 1447454555446
556, 1447454555463
543, 1447454555469
527, 1447454555480
523, 1447454555492
561, 1447454555503
502, 1447454555515
529, 1447454555526
560, 1447454555538
529, 1447454555549
470, 1447454555561
556, 1447454555572
506, 1447454555584
479, 1447454555595
550, 1447454555607
519, 1447454555618
477, 1447454555630
529, 1447454555641
536, 1447454555653
470, 1447454555664
514, 1447454555676
551, 1447454555687
475, 1447454555699
494, 1447454555710
537, 1447454555722
493, 1447454555733
475, 1447454555745
535, 1447454555756
501, 1447454555768
473, 1447454555779
522, 1447454555791
506, 1447454555802
483, 1447454555814
515, 1447454555825
528, 1447454555837
477, 1447454555848
504, 1447454555860
497, 1447454555871
440, 1447454555883
454, 1447454555894
496, 1447454555906
460, 1447454555916
406, 1447454555929
479, 1447454555939
472, 1447454555950
405, 1447454555962
561, 1447454555974
481, 1447454555985
355, 1447454555998
449, 1447454556008
513, 1447454556019
435, 1447454556031
464, 1447454556042
508, 1447454556054
446, 1447454556066
448, 1447454556077
510, 1447454556088
469, 1447454556100
449, 1447454556111
518, 1447454556123
496, 1447454556134
448, 1447454556146
527, 1447454556158
519, 1447454556169
482, 1447454556180
531, 1447454556192
553, 1447454556203
497, 1447454556215
508, 1447454556226
564, 1447454556238
497, 1447454556249
483, 1447454556261
536, 1447454556273
491, 1447454556284
455, 1447454556295
522, 1447454556307
498, 1447454556320
453, 1447454556330
522, 1447454556341
539, 1447454556353
473, 1447454556364
507, 1447454556377
548, 1447454556387
485, 1447454556399
501, 1447454556410
556, 1447454556422
504, 1447454556433
485, 1447454556445
554, 1447454556456
513, 1447454556468
481, 1447454556479
537, 1447454556491
525, 1447454556503
480, 1447454556514
514, 1447454556525
545, 1447454556537
483, 1447454556548
513, 1447454556560
554, 1447454556571
485, 1447454556583
482, 1447454556594
554, 1447454556606
519, 1447454556617
497, 1447454556629
563, 1447454556640
534, 1447454556652
493, 1447454556663
549, 1447454556675
543, 1447454556686
486, 1447454556698
516, 1447454556709
557, 1447454556726
485, 1447454556732
507, 1447454556743
554, 1447454556755
511, 1447454556766
496, 1447454556778
569, 1447454556789
597, 1447454556801
544, 1447454556812
510, 1447454556824
509, 1447454556835
512, 1447454556847
563, 1447454556858
564, 1447454556870
503, 1447454556881
541, 1447454556893
582, 1447454556904
527, 1447454556916
530, 1447454556927
591, 1447454556939
543, 1447454556950
524, 1447454556962
588, 1447454556973
568, 1447454556986
526, 1447454556996
591, 1447454557008
586, 1447454557019
530, 1447454557030
573, 1447454557042
594, 1447454557053
517, 1447454557064
534, 1447454557076
562, 1447454557088
488, 1447454557100
490, 1447454557111
542, 1447454557123
496, 1447454557133
467, 1447454557145
520, 1447454557157
504, 1447454557168
453, 1447454557179
505, 1447454557198
527, 1447454557204
455, 1447454557215
492, 1447454557226
527, 1447454557237
470, 1447454557248
481, 1447454557260
539, 1447454557271
482, 1447454557283
473, 1447454557294
531, 1447454557306
502, 1447454557317
462, 1447454557329
524, 1447454557340
517, 1447454557352
468, 1447454557363
519, 1447454557376
540, 1447454557389
471, 1447454557398
497, 1447454557409
543, 1447454557421
485, 1447454557432
494, 1447454557444
542, 1447454557455
501, 1447454557467
480, 1447454557478
544, 1447454557490
515, 1447454557501
467, 1447454557512
514, 1447454557525
516, 1447454557535
456, 1447454557547
491, 1447454557558
520, 1447454557570
455, 1447454557581
473, 1447454557594
526, 1447454557604
475, 1447454557616
524, 1447454557627
570, 1447454557639
433, 1447454557650
400, 1447454557662
526, 1447454557673
510, 1447454557685
442, 1447454557696
495, 1447454557708
510, 1447454557720
453, 1447454557731
496, 1447454557742
522, 1447454557754
460, 1447454557765
470, 1447454557777
526, 1447454557788
483, 1447454557800
469, 1447454557811
533, 1447454557823
513, 1447454557834
476, 1447454557846
536, 1447454557857
539, 1447454557869
482, 1447454557880
522, 1447454557892
537, 1447454557903
461, 1447454557915
479, 1447454557926
511, 1447454557938
446, 1447454557949
441, 1447454557961
503, 1447454557972
454, 1447454557984
440, 1447454557995
507, 1447454558007
477, 1447454558018
436, 1447454558032
493, 1447454558041
499, 1447454558053
437, 1447454558064
470, 1447454558076
511, 1447454558087
443, 1447454558099
460, 1447454558112
497, 1447454558122
442, 1447454558151
432, 1447454558151
496, 1447454558156
463, 1447454558168
441, 1447454558178
497, 1447454558190
479, 1447454558202
433, 1447454558212
476, 1447454558225
502, 1447454558237
436, 1447454558248
466, 1447454558260
523, 1447454558270
460, 1447454558281
467, 1447454558294
523, 1447454558304
467, 1447454558316
447, 1447454558328
510, 1447454558339
480, 1447454558350
433, 1447454558362
489, 1447454558373
488, 1447454558385
439, 1447454558396
482, 1447454558408
511, 1447454558419
493, 1447454558431
538, 1447454558442
503, 1447454558454
412, 1447454558466
474, 1447454558477
554, 1447454558488
497, 1447454558500
468, 1447454558511
499, 1447454558523
535, 1447454558534
476, 1447454558546
514, 1447454558557
549, 1447454558569
504, 1447454558580
573, 1447454558598
589, 1447454558605
600, 1447454558615
515, 1447454558626
649, 1447454558638
554, 1447454558649
579, 1447454558661
554, 1447454558672
689, 1447454558685
540, 1447454558695
605, 1447454558707
616, 1447454558718
559, 1447454558730
605, 1447454558741
618, 1447454558753
568, 1447454558766
591, 1447454558776
674, 1447454558787
539, 1447454558799
595, 1447454558810
621, 1447454558822
554, 1447454558833
546, 1447454558845
588, 1447454558857
561, 1447454558868
552, 1447454558879
553, 1447454558891
531, 1447454558903
533, 1447454558915
569, 1447454558925
586, 1447454558937
505, 1447454558948
508, 1447454558960
520, 1447454558973
460, 1447454558983
487, 1447454558994
548, 1447454559006
516, 1447454559017
482, 1447454559029
515, 1447454559040
500, 1447454559062
501, 1447454559063
527, 1447454559074
544, 1447454559085
494, 1447454559097
537, 1447454559109
547, 1447454559120
506, 1447454559132
497, 1447454559143
527, 1447454559155
498, 1447454559166
492, 1447454559178
540, 1447454559189
515, 1447454559203
487, 1447454559212
571, 1447454559224
621, 1447454559235
492, 1447454559247
466, 1447454559258
521, 1447454559270
478, 1447454559280
478, 1447454559293
507, 1447454559303
461, 1447454559316
453, 1447454559326
486, 1447454559338
447, 1447454559349
411, 1447454559361
446, 1447454559372
428, 1447454559384
389, 1447454559396
432, 1447454559408
443, 1447454559418
402, 1447454559431
441, 1447454559442
456, 1447454559454
409, 1447454559464
423, 1447454559476
472, 1447454559487
399, 1447454559499
383, 1447454559511
416, 1447454559522
378, 1447454559533
343, 1447454559545
404, 1447454559559
406, 1447454559576
381, 1447454559581
426, 1447454559591
445, 1447454559603
391, 1447454559614
421, 1447454559625
458, 1447454559637
428, 1447454559649
400, 1447454559660
458, 1447454559671
432, 1447454559683
380, 1447454559697
439, 1447454559706
427, 1447454559717
431, 1447454559730
503, 1447454559740
505, 1447454559752
450, 1447454559763
473, 1447454559774
484, 1447454559789
415, 1447454559797
454, 1447454559809
502, 1447454559820
440, 1447454559832
453, 1447454559843
485, 1447454559855
455, 1447454559866
436, 1447454559878
490, 1447454559889
477, 1447454559901
434, 1447454559912
487, 1447454559924
478, 1447454559935
401, 1447454559947
418, 1447454559958
447, 1447454559970
399, 1447454559981
428, 1447454559993
544, 1447454560004
541, 1447454560016
439, 1447454560027
463, 1447454560039
493, 1447454560050
476, 1447454560062
516, 1447454560073
506, 1447454560086
461, 1447454560096
514, 1447454560108
501, 1447454560120
453, 1447454560131
477, 1447454560143
516, 1447454560154
471, 1447454560165
449, 1447454560177
532, 1447454560188
492, 1447454560200
479, 1447454560211
528, 1447454560223
518, 1447454560234
481, 1447454560246
521, 1447454560258
528, 1447454560269
462, 1447454560280
471, 1447454560292
470, 1447454560303
404, 1447454560315
409, 1447454560326
458, 1447454560338
422, 1447454560349
401, 1447454560361
417, 1447454560372
393, 1447454560384
384, 1447454560394
416, 1447454560406
397, 1447454560418
361, 1447454560430
389, 1447454560440
391, 1447454560452
359, 1447454560463
389, 1447454560476
433, 1447454560487
398, 1447454560499
412, 1447454560510
450, 1447454560520
412, 1447454560533
400, 1447454560544
444, 1447454560555
422, 1447454560566
372, 1447454560578
439, 1447454560589
467, 1447454560601
444, 1447454560613
535, 1447454560624
542, 1447454560637
432, 1447454560648
431, 1447454560658
475, 1447454560670
444, 1447454560681
466, 1447454560693
529, 1447454560704
522, 1447454560717
515, 1447454560728
570, 1447454560740
604, 1447454560750
643, 1447454560763
586, 1447454560773
525, 1447454560786
512, 1447454560799
558, 1447454560808
579, 1447454560821
532, 1447454560831
541, 1447454560842
586, 1447454560854
559, 1447454560870
579, 1447454560877
651, 1447454560888
642, 1447454560926
636, 1447454560928
708, 1447454560928
704, 1447454560934
648, 1447454560946
670, 1447454560958
677, 1447454560969
627, 1447454560980
644, 1447454560994
677, 1447454561003
636, 1447454561015
635, 1447454561026
669, 1447454561038
628, 1447454561050
608, 1447454561061
650, 1447454561072
621, 1447454561084
580, 1447454561095
614, 1447454561113
619, 1447454561121
577, 1447454561130
602, 1447454561142
633, 1447454561153
590, 1447454561164
608, 1447454561178
646, 1447454561187
603, 1447454561198
596, 1447454561210
636, 1447454561221
593, 1447454561235
562, 1447454561244
596, 1447454561257
578, 1447454561271
526, 1447454561279
555, 1447454561290
567, 1447454561302
509, 1447454561313
531, 1447454561329
561, 1447454561339
510, 1447454561348
517, 1447454561359
562, 1447454561372
528, 1447454561382
503, 1447454561394
534, 1447454561405
497, 1447454561418
446, 1447454561444
593, 1447454561444
773, 1447454561451
744, 1447454561464
814, 1447454561474
857, 1447454561487
798, 1447454561499
854, 1447454561510
922, 1447454561520
962, 1447454561533
892, 1447454561545
965, 1447454561555
999, 1447454561566
1002, 1447454561579
1004, 1447454561591
1004, 1447454561609
1004, 1447454561616
1004, 1447454561633
1004, 1447454561641
1004, 1447454561654
1004, 1447454561673
1004, 1447454561679
1004, 1447454561692
1004, 1447454561704
1004, 1447454561717
1004, 1447454561729
1004, 1447454561742
1004, 1447454561757
1004, 1447454561770
1004, 1447454561781
1003, 1447454561795
1003, 1447454561804
1001, 1447454561817
995, 1447454561829
938, 1447454561840
866, 1447454561852
791, 1447454561862
798, 1447454561873
776, 1447454561886
646, 1447454561898
499, 1447454561912
0, 1447454561917
0, 1447454561927
0, 1447454561938
0, 1447454561946
0, 1447454561958
0, 1447454561965
0, 1447454561974
0, 1447454561983
0, 1447454561993
0, 1447454562004
0, 1447454562012
0, 1447454562024
0, 1447454562031
0, 1447454562040
0, 1447454562049
0, 1447454562059
0, 1447454562069
0, 1447454562077
0, 1447454562092
0, 1447454562096
0, 1447454562105
0, 1447454562115
0, 1447454562125
0, 1447454562134
0, 1447454562143
0, 1447454562154
0, 1447454562162
0, 1447454562171
0, 1447454562182
0, 1447454562190
0, 1447454562199
0, 1447454562209
0, 1447454562219
0, 1447454562229
0, 1447454562237
0, 1447454562248
0, 1447454562256
0, 1447454562265
0, 1447454562275
0, 1447454562285
0, 1447454562293
67, 1447454562304
17, 1447454562317
88, 1447454562329
164, 1447454562364
146, 1447454562366
186, 1447454562366
162, 1447454562372
127, 1447454562384
177, 1447454562394
299, 1447454562406
299, 1447454562419
282, 1447454562430
359, 1447454562440
385, 1447454562451
371, 1447454562463
420, 1447454562474
442, 1447454562487
407, 1447454562497
430, 1447454562513
477, 1447454562523
449, 1447454562532
439, 1447454562543
529, 1447454562554
488, 1447454562566
495, 1447454562577
553, 1447454562589
543, 1447454562600
524, 1447454562612
571, 1447454562623
583, 1447454562636
537, 1447454562646
565, 1447454562659
597, 1447454562670
589, 1447454562681
561, 1447454562692
611, 1447454562704
584, 1447454562715
584, 1447454562727
624, 1447454562738
610, 1447454562750
597, 1447454562761
639, 1447454562773
644, 1447454562784
611, 1447454562798
645, 1447454562807
671, 1447454562820
607, 1447454562830
642, 1447454562842
662, 1447454562855
615, 1447454562865
659, 1447454562876
713, 1447454562889
662, 1447454562899
659, 1447454562911
587, 1447454562925
576, 1447454562934
622, 1447454562945
640, 1447454562957
662, 1447454562971
662, 1447454562982
700, 1447454562991
755, 1447454563003
742, 1447454563014
730, 1447454563026
753, 1447454563048
621, 1447454563049
545, 1447454563060
699, 1447454563072
675, 1447454563083
663, 1447454563095
701, 1447454563106
711, 1447454563118
649, 1447454563129
679, 1447454563141
677, 1447454563153
590, 1447454563164
521, 1447454563174
670, 1447454563186
637, 1447454563199
690, 1447454563209
776, 1447454563221
659, 1447454563237
590, 1447454563243
721, 1447454563254
834, 1447454563266
783, 1447454563277
747, 1447454563292
715, 1447454563301
635, 1447454563313
638, 1447454563328
608, 1447454563335
428, 1447454563346
404, 1447454563359
642, 1447454563370
597, 1447454563381
606, 1447454563392
654, 1447454563405
613, 1447454563416
583, 1447454563427
636, 1447454563440
634, 1447454563451
617, 1447454563461
659, 1447454563473
644, 1447454563485
612, 1447454563501
660, 1447454563512
626, 1447454563521
506, 1447454563530
462, 1447454563543
572, 1447454563554
558, 1447454563570
537, 1447454563576
596, 1447454563588
569, 1447454563601
557, 1447454563611
577, 1447454563622
583, 1447454563635
539, 1447454563646
560, 1447454563665
588, 1447454563668
521, 1447454563680
560, 1447454563691
575, 1447454563703
526, 1447454563714
499, 1447454563729
551, 1447454563737
519, 1447454563751
506, 1447454563760
541, 1447454563772
510, 1447454563784
472, 1447454563795
514, 1447454563816
548, 1447454563818
499, 1447454563829
528, 1447454563845
550, 1447454563853
489, 1447454563863
532, 1447454563875
555, 1447454563888
501, 1447454563899
504, 1447454563910
547, 1447454563921
497, 1447454563932
475, 1447454563944
522, 1447454563955
499, 1447454563969
464, 1447454563978
508, 1447454563990
506, 1447454564001
476, 1447454564014
496, 1447454564028
544, 1447454564037
517, 1447454564047
586, 1447454564059
544, 1447454564070
440, 1447454564082
486, 1447454564094
547, 1447454564105
521, 1447454564116
494, 1447454564128
520, 1447454564141
518, 1447454564155
476, 1447454564162
513, 1447454564174
528, 1447454564185
465, 1447454564198
521, 1447454564208
530, 1447454564220
502, 1447454564231
492, 1447454564243
544, 1447454564254
512, 1447454564266
501, 1447454564297
542, 1447454564299
521, 1447454564300
489, 1447454564316
519, 1447454564323
506, 1447454564341
453, 1447454564346
469, 1447454564358
508, 1447454564368
442, 1447454564380
457, 1447454564393
485, 1447454564405
443, 1447454564416
439, 1447454564431
487, 1447454564438
465, 1447454564449
429, 1447454564460
489, 1447454564473
482, 1447454564485
436, 1447454564495
474, 1447454564507
495, 1447454564517
443, 1447454564529
469, 1447454564540
500, 1447454564553
457, 1447454564564
477, 1447454564577
507, 1447454564587
470, 1447454564600
464, 1447454564609
509, 1447454564621
490, 1447454564632
457, 1447454564644
500, 1447454564655
498, 1447454564667
452, 1447454564678
489, 1447454564691
520, 1447454564706
467, 1447454564714
486, 1447454564725
513, 1447454564738
478, 1447454564748
477, 1447454564761
530, 1447454564770
491, 1447454564785
464, 1447454564797
505, 1447454564806
484, 1447454564817
447, 1447454564828
495, 1447454564839
492, 1447454564851
457, 1447454564862
480, 1447454564875
504, 1447454564888
464, 1447454564897
527, 1447454564911
612, 1447454564920
456, 1447454564931
409, 1447454564948
514, 1447454564954
511, 1447454564966
473, 1447454564977
517, 1447454564989
511, 1447454565000
481, 1447454565012
513, 1447454565031
521, 1447454565037
487, 1447454565046
517, 1447454565058
543, 1447454565070
501, 1447454565084
513, 1447454565093
550, 1447454565106
532, 1447454565115
520, 1447454565127
578, 1447454565141
557, 1447454565149
527, 1447454565161
570, 1447454565172
572, 1447454565184
507, 1447454565199
537, 1447454565207
552, 1447454565218
484, 1447454565230
528, 1447454565242
540, 1447454565258
484, 1447454565264
497, 1447454565276
558, 1447454565287
528, 1447454565299
465, 1447454565310
554, 1447454565322
516, 1447454565333
500, 1447454565346
538, 1447454565356
553, 1447454565369
511, 1447454565384
541, 1447454565391
558, 1447454565402
520, 1447454565414
523, 1447454565425
569, 1447454565441
519, 1447454565452
505, 1447454565460
551, 1447454565477
531, 1447454565483
502, 1447454565498
546, 1447454565506
548, 1447454565517
504, 1447454565529
545, 1447454565543
560, 1447454565552
499, 1447454565564
512, 1447454565575
553, 1447454565587
505, 1447454565598
509, 1447454565609
568, 1447454565621
543, 1447454565631
510, 1447454565643
541, 1447454565654
525, 1447454565666
494, 1447454565679
540, 1447454565692
556, 1447454565700
509, 1447454565713
527, 1447454565724
530, 1447454565736
490, 1447454565749
492, 1447454565758
547, 1447454565775
498, 1447454565782
483, 1447454565792
530, 1447454565804
511, 1447454565815
512, 1447454565828
613, 1447454565839
506, 1447454565853
413, 1447454565862
499, 1447454565872
538, 1447454565884
484, 1447454565899
495, 1447454565907
533, 1447454565918
484, 1447454565931
480, 1447454565942
532, 1447454565954
478, 1447454565964
478, 1447454565976
530, 1447454565989
510, 1447454565999
484, 1447454566010
535, 1447454566022
537, 1447454566033
495, 1447454566046
524, 1447454566059
553, 1447454566068
504, 1447454566081
523, 1447454566091
552, 1447454566104
490, 1447454566114
482, 1447454566125
519, 1447454566139
476, 1447454566153
450, 1447454566161
501, 1447454566172
483, 1447454566183
448, 1447454566194
493, 1447454566206
497, 1447454566217
454, 1447454566229
480, 1447454566240
514, 1447454566254
457, 1447454566265
480, 1447454566275
511, 1447454566286
480, 1447454566299
461, 1447454566315
512, 1447454566328
482, 1447454566332
452, 1447454566344
503, 1447454566357
497, 1447454566371
457, 1447454566380
497, 1447454566393
506, 1447454566401
455, 1447454566413
479, 1447454566424
508, 1447454566438
462, 1447454566451
470, 1447454566459
514, 1447454566472
478, 1447454566484
474, 1447454566493
521, 1447454566504
487, 1447454566516
461, 1447454566527
505, 1447454566549
504, 1447454566552
459, 1447454566562
496, 1447454566573
515, 1447454566585
467, 1447454566596
485, 1447454566608
515, 1447454566619
474, 1447454566635
461, 1447454566642
510, 1447454566667
462, 1447454566667
445, 1447454566677
497, 1447454566688
479, 1447454566700
448, 1447454566712
482, 1447454566723
496, 1447454566734
442, 1447454566746
494, 1447454566757
589, 1447454566770
485, 1447454566780
418, 1447454566792
470, 1447454566803
490, 1447454566815
477, 1447454566829
511, 1447454566837
482, 1447454566850
464, 1447454566860
509, 1447454566872
505, 1447454566884
466, 1447454566896
508, 1447454566908
525, 1447454566917
494, 1447454566930
526, 1447454566942
562, 1447454566953
510, 1447454566963
509, 1447454566976
552, 1447454566987
517, 1447454566999
499, 1447454567010
541, 1447454567021
517, 1447454567033
471, 1447454567045
496, 1447454567060
490, 1447454567070
448, 1447454567078
480, 1447454567091
493, 1447454567101
450, 1447454567113
458, 1447454567127
501, 1447454567138
463, 1447454567149
473, 1447454567158
518, 1447454567171
482, 1447454567181
448, 1447454567193
504, 1447454567204
498, 1447454567216
464, 1447454567228
506, 1447454567239
516, 1447454567253
471, 1447454567262
497, 1447454567273
518, 1447454567285
471, 1447454567296
489, 1447454567310
528, 1447454567319
499, 1447454567332
493, 1447454567342
539, 1447454567354
516, 1447454567365
493, 1447454567377
537, 1447454567388
528, 1447454567400
507, 1447454567411
547, 1447454567423
570, 1447454567439
537, 1447454567446
557, 1447454567457
583, 1447454567470
544, 1447454567480
547, 1447454567499
580, 1447454567503
559, 1447454567515
546, 1447454567526
596, 1447454567541
575, 1447454567558
539, 1447454567561
570, 1447454567572
565, 1447454567587
527, 1447454567595
561, 1447454567607
619, 1447454567618
614, 1447454567630
536, 1447454567641
515, 1447454567655
522, 1447454567664
534, 1447454567679
493, 1447454567687
1003, 1447454567700
1001, 1447454567713
679, 1447454567724
605, 1447454567735
494, 1447454567750
456, 1447454567758
398, 1447454567772
359, 1447454567781
371, 1447454567793
495, 1447454567804
557, 1447454567816
509, 1447454567829
481, 1447454567840
317, 1447454567850
332, 1447454567865
416, 1447454567873
503, 1447454567885
443, 1447454567896
465, 1447454567908
477, 1447454567919
434, 1447454567931
452, 1447454567942
487, 1447454567958
423, 1447454567965
370, 1447454567977
369, 1447454567988
339, 1447454567999
338, 1447454568013
404, 1447454568026
539, 1447454568034
522, 1447454568045
520, 1447454568063
501, 1447454568068
427, 1447454568083
0, 1447454568088
305, 1447454568100
609, 1447454568112
693, 1447454568124
558, 1447454568134
365, 1447454568149
324, 1447454568159
478, 1447454568172
478, 1447454568180
616, 1447454568193
617, 1447454568204
516, 1447454568216
476, 1447454568226
530, 1447454568238
515, 1447454568249
460, 1447454568261
455, 1447454568273
372, 1447454568284
396, 1447454568296
456, 1447454568309
548, 1447454568319
548, 1447454568330
612, 1447454568342
666, 1447454568354
607, 1447454568365
564, 1447454568377
559, 1447454568387
517, 1447454568399
488, 1447454568415
514, 1447454568422
504, 1447454568433
469, 1447454568445
493, 1447454568456
508, 1447454568468
482, 1447454568479
518, 1447454568494
602, 1447454568507
494, 1447454568513
444, 1447454568525
494, 1447454568537
491, 1447454568548
468, 1447454568561
504, 1447454568571
484, 1447454568582
490, 1447454568594
527, 1447454568605
544, 1447454568625
520, 1447454568629
547, 1447454568640
560, 1447454568651
515, 1447454568667
510, 1447454568674
485, 1447454568686
491, 1447454568698
488, 1447454568709
514, 1447454568728
501, 1447454568732
493, 1447454568743
526, 1447454568755
507, 1447454568767
494, 1447454568778
451, 1447454568789
483, 1447454568801
439, 1447454568812
490, 1447454568824
435, 1447454568835
431, 1447454568847
460, 1447454568858
480, 1447454568870
477, 1447454568881
439, 1447454568893
509, 1447454568904
511, 1447454568916
421, 1447454568928
528, 1447454568939
544, 1447454568950
470, 1447454568962
512, 1447454568973
544, 1447454568988
524, 1447454568996
473, 1447454569008
534, 1447454569019
495, 1447454569031
523, 1447454569042
493, 1447454569054
502, 1447454569065
477, 1447454569077
534, 1447454569088
534, 1447454569100
457, 1447454569111
513, 1447454569123
508, 1447454569134
477, 1447454569146
544, 1447454569157
484, 1447454569169
490, 1447454569180
487, 1447454569192
506, 1447454569208
504, 1447454569215
495, 1447454569225
500, 1447454569238
490, 1447454569248
460, 1447454569260
482, 1447454569272
480, 1447454569283
450, 1447454569294
466, 1447454569305
509, 1447454569317
426, 1447454569328
476, 1447454569340
517, 1447454569351
521, 1447454569363
547, 1447454569374
487, 1447454569386
433, 1447454569398
469, 1447454569410
522, 1447454569421
495, 1447454569432
453, 1447454569443
490, 1447454569456
492, 1447454569466
455, 1447454569478
480, 1447454569489
498, 1447454569501
455, 1447454569512
463, 1447454569524
493, 1447454569535
466, 1447454569547
461, 1447454569558
495, 1447454569571
480, 1447454569581
457, 1447454569593
496, 1447454569604
487, 1447454569616
451, 1447454569627
487, 1447454569639
473, 1447454569650
434, 1447454569667
443, 1447454569673
462, 1447454569688
432, 1447454569696
439, 1447454569708
473, 1447454569720
445, 1447454569731
431, 1447454569742
480, 1447454569754
469, 1447454569766
458, 1447454569781
504, 1447454569788
509, 1447454569800
489, 1447454569811
519, 1447454569823
539, 1447454569834
503, 1447454569846
521, 1447454569857
559, 1447454569869
522, 1447454569880
517, 1447454569892
570, 1447454569904
541, 1447454569915
532, 1447454569926
560, 1447454569938
569, 1447454569949
530, 1447454569961
554, 1447454569972
559, 1447454569984
537, 1447454569995
544, 1447454570007
592, 1447454570018
537, 1447454570030
539, 1447454570041
584, 1447454570053
548, 1447454570064
523, 1447454570076
628, 1447454570087
529, 1447454570099
512, 1447454570110
556, 1447454570121
543, 1447454570133
538, 1447454570144
555, 1447454570156
568, 1447454570167
555, 1447454570179
541, 1447454570190
560, 1447454570203
573, 1447454570213
580, 1447454570225
635, 1447454570236
529, 1447454570248
484, 1447454570259
599, 1447454570270
585, 1447454570282
533, 1447454570293
578, 1447454570304
588, 1447454570317
548, 1447454570327
585, 1447454570339
595, 1447454570350
564, 1447454570362
568, 1447454570376
636, 1447454570387
562, 1447454570398
542, 1447454570409
607, 1447454570420
593, 1447454570433
586, 1447454570442
651, 1447454570455
589, 1447454570465
568, 1447454570478
607, 1447454570488
607, 1447454570500
557, 1447454570511
581, 1447454570523
574, 1447454570534
527, 1447454570547
540, 1447454570557
573, 1447454570570
556, 1447454570581
520, 1447454570592
556, 1447454570604
534, 1447454570616
511, 1447454570626
553, 1447454570638
550, 1447454570650
519, 1447454570661
567, 1447454570672
550, 1447454570684
508, 1447454570695
533, 1447454570707
558, 1447454570718
532, 1447454570730
515, 1447454570742
554, 1447454570754
539, 1447454570764
487, 1447454570776
553, 1447454570787
534, 1447454570799
507, 1447454570810
544, 1447454570822
551, 1447454570833
510, 1447454570845
522, 1447454570856
539, 1447454570868
516, 1447454570879
521, 1447454570890
551, 1447454570902
528, 1447454570913
518, 1447454570941
541, 1447454570942
534, 1447454570948
481, 1447454570959
524, 1447454570971
520, 1447454570982
510, 1447454570994
497, 1447454571005
526, 1447454571017
476, 1447454571028
497, 1447454571040
533, 1447454571051
511, 1447454571063
560, 1447454571074
545, 1447454571086
452, 1447454571097
456, 1447454571109
533, 1447454571120
528, 1447454571132
485, 1447454571143
527, 1447454571155
503, 1447454571166
478, 1447454571178
506, 1447454571189
533, 1447454571201
497, 1447454571212
503, 1447454571224
548, 1447454571235
503, 1447454571265
513, 1447454571265
552, 1447454571270
537, 1447454571281
543, 1447454571293
563, 1447454571304
546, 1447454571316
528, 1447454571327
544, 1447454571338
556, 1447454571350
500, 1447454571361
511, 1447454571373
533, 1447454571384
485, 1447454571395
500, 1447454571407
521, 1447454571418
503, 1447454571430
518, 1447454571441
551, 1447454571454
537, 1447454571464
506, 1447454571481
547, 1447454571488
538, 1447454571499
484, 1447454571510
523, 1447454571522
540, 1447454571533
494, 1447454571545
515, 1447454571556
543, 1447454571568
479, 1447454571579
501, 1447454571592
537, 1447454571602
494, 1447454571614
484, 1447454571625
522, 1447454571637
516, 1447454571648
483, 1447454571660
523, 1447454571671
528, 1447454571682
486, 1447454571694
522, 1447454571706
528, 1447454571717
491, 1447454571728
512, 1447454571741
544, 1447454571752
492, 1447454571763
496, 1447454571774
502, 1447454571786
490, 1447454571797
476, 1447454571809
512, 1447454571820
499, 1447454571832
467, 1447454571843
502, 1447454571855
513, 1447454571866
457, 1447454571878
552, 1447454571889
546, 1447454571901
453, 1447454571912
431, 1447454571924
523, 1447454571936
482, 1447454571947
479, 1447454571958
513, 1447454571970
495, 1447454571981
483, 1447454571993
507, 1447454572004
502, 1447454572016
487, 1447454572027
507, 1447454572039
533, 1447454572050
489, 1447454572062
493, 1447454572073
547, 1447454572085
505, 1447454572096
506, 1447454572108
557, 1447454572120
512, 1447454572131
494, 1447454572142
554, 1447454572154
505, 1447454572165
471, 1447454572177
510, 1447454572188
491, 1447454572200
463, 1447454572211
484, 1447454572223
511, 1447454572234
462, 1447454572246
478, 1447454572257
503, 1447454572269
461, 1447454572280
469, 1447454572292
508, 1447454572304
478, 1447454572315
474, 1447454572326
497, 1447454572339
489, 1447454572349
446, 1447454572361
495, 1447454572372
487, 1447454572384
447, 1447454572398
488, 1447454572407
506, 1447454572418
454, 1447454572430
473, 1447454572440
503, 1447454572454
462, 1447454572463
475, 1447454572475
504, 1447454572489
479, 1447454572497
483, 1447454572510
494, 1447454572520
518, 1447454572533
460, 1447454572548
508, 1447454572556
520, 1447454572566
492, 1447454572578
493, 1447454572590
543, 1447454572601
474, 1447454572612
498, 1447454572624
520, 1447454572636
497, 1447454572647
466, 1447454572658
507, 1447454572670
504, 1447454572681
467, 1447454572693
494, 1447454572704
504, 1447454572716
452, 1447454572729
485, 1447454572740
520, 1447454572750
515, 1447454572762
547, 1447454572773
482, 1447454572785
423, 1447454572796
471, 1447454572808
541, 1447454572819
496, 1447454572831
463, 1447454572842
510, 1447454572854
500, 1447454572865
476, 1447454572877
512, 1447454572888
506, 1447454572900
484, 1447454572911
501, 1447454572923
528, 1447454572934
496, 1447454572946
507, 1447454572963
540, 1447454572975
535, 1447454572980
498, 1447454572992
557, 1447454573003
530, 1447454573015
520, 1447454573026
536, 1447454573041
520, 1447454573049
482, 1447454573061
496, 1447454573072
533, 1447454573084
457, 1447454573095
493, 1447454573107
514, 1447454573118
470, 1447454573130
507, 1447454573141
509, 1447454573153
475, 1447454573164
478, 1447454573176
517, 1447454573187
503, 1447454573199
480, 1447454573210
505, 1447454573222
512, 1447454573233
487, 1447454573244
500, 1447454573256
517, 1447454573267
480, 1447454573279
510, 1447454573290
511, 1447454573302
484, 1447454573313
483, 1447454573325
510, 1447454573336
494, 1447454573348
471, 1447454573359
513, 1447454573371
501, 1447454573382
465, 1447454573394
511, 1447454573405
512, 1447454573417
472, 1447454573428
487, 1447454573440
527, 1447454573451
490, 1447454573463
494, 1447454573474
538, 1447454573486
491, 1447454573497
489, 1447454573512
536, 1447454573521
527, 1447454573531
490, 1447454573542
525, 1447454573554
514, 1447454573566
480, 1447454573578
518, 1447454573588
519, 1447454573601
483, 1447454573612
499, 1447454573623
527, 1447454573634
496, 1447454573646
541, 1447454573657
588, 1447454573670
464, 1447454573680
445, 1447454573692
534, 1447454573703
523, 1447454573715
492, 1447454573727
534, 1447454573738
514, 1447454573749
480, 1447454573761
503, 1447454573772
528, 1447454573784
494, 1447454573795
502, 1447454573807
537, 1447454573818
500, 1447454573830
488, 1447454573841
545, 1447454573853
512, 1447454573864
506, 1447454573876
545, 1447454573887
530, 1447454573899
504, 1447454573910
537, 1447454573922
524, 1447454573933
482, 1447454573945
499, 1447454573956
517, 1447454573968
481, 1447454573979
482, 1447454573991
514, 1447454574002
489, 1447454574014
484, 1447454574025
511, 1447454574037
502, 1447454574048
482, 1447454574060
514, 1447454574071
511, 1447454574082
474, 1447454574094
505, 1447454574108
519, 1447454574117
478, 1447454574128
498, 1447454574140
523, 1447454574151
489, 1447454574163
485, 1447454574174
525, 1447454574187
489, 1447454574197
485, 1447454574209
515, 1447454574220
500, 1447454574232
479, 1447454574243
514, 1447454574255
513, 1447454574266
471, 1447454574278
504, 1447454574302
520, 1447454574302
478, 1447454574312
510, 1447454574324
544, 1447454574335
509, 1447454574347
491, 1447454574358
530, 1447454574370
506, 1447454574381
490, 1447454574393
519, 1447454574404
517, 1447454574416
463, 1447454574427
501, 1447454574439
514, 1447454574450
467, 1447454574462
483, 1447454574473
509, 1447454574485
480, 1447454574496
476, 1447454574508
526, 1447454574519
495, 1447454574531
550, 1447454574542
515, 1447454574554
458, 1447454574565
449, 1447454574577
535, 1447454574588
523, 1447454574600
488, 1447454574611
503, 1447454574622
525, 1447454574634
482, 1447454574646
497, 1447454574656
534, 1447454574668
488, 1447454574680
485, 1447454574691
529, 1447454574704
493, 1447454574715
486, 1447454574726
532, 1447454574737
512, 1447454574748
494, 1447454574760
524, 1447454574771
547, 1447454574783
503, 1447454574794
519, 1447454574806
522, 1447454574817
475, 1447454574828
461, 1447454574840
512, 1447454574852
472, 1447454574863
476, 1447454574874
476, 1447454574886
477, 1447454574897
458, 1447454574909
496, 1447454574920
495, 1447454574932
456, 1447454574943
485, 1447454574955
484, 1447454574966
466, 1447454574978
485, 1447454574989
502, 1447454575001
466, 1447454575012
479, 1447454575024
503, 1447454575035
475, 1447454575047
457, 1447454575058
508, 1447454575070
491, 1447454575081
467, 1447454575093
502, 1447454575104
492, 1447454575116
471, 1447454575127
499, 1447454575139
506, 1447454575150
459, 1447454575162
486, 1447454575173
519, 1447454575186
469, 1447454575196
477, 1447454575208
525, 1447454575220
488, 1447454575231
483, 1447454575242
527, 1447454575254
524, 1447454575265
488, 1447454575277
521, 1447454575288
533, 1447454575300
487, 1447454575311
499, 1447454575323
530, 1447454575334
475, 1447454575346
495, 1447454575357
531, 1447454575369
509, 1447454575380
492, 1447454575392
521, 1447454575403
513, 1447454575415
484, 1447454575426
563, 1447454575438
587, 1447454575449
441, 1447454575461
447, 1447454575472
528, 1447454575484
509, 1447454575495
515, 1447454575507
526, 1447454575518
495, 1447454575530
495, 1447454575541
562, 1447454575553
518, 1447454575564
508, 1447454575576
553, 1447454575587
490, 1447454575598
502, 1447454575610
528, 1447454575621
541, 1447454575633
517, 1447454575644
559, 1447454575656
555, 1447454575667
541, 1447454575679
530, 1447454575690
559, 1447454575704
535, 1447454575712
501, 1447454575725
536, 1447454575737
505, 1447454575748
492, 1447454575758
516, 1447454575771
516, 1447454575781
483, 1447454575793
511, 1447454575806
515, 1447454575816
472, 1447454575827
513, 1447454575839
511, 1447454575850
473, 1447454575862
498, 1447454575873
524, 1447454575886
486, 1447454575896
494, 1447454575908
527, 1447454575921
482, 1447454575933
506, 1447454575943
506, 1447454575954
536, 1447454575965
471, 1447454575977
515, 1447454575988
531, 1447454576000
491, 1447454576011
518, 1447454576023
557, 1447454576034
490, 1447454576046
508, 1447454576057
546, 1447454576069
511, 1447454576080
510, 1447454576092
524, 1447454576103
537, 1447454576115
492, 1447454576126
536, 1447454576138
553, 1447454576149
524, 1447454576161
559, 1447454576172
566, 1447454576184
516, 1447454576195
537, 1447454576207
550, 1447454576218
515, 1447454576230
491, 1447454576241
539, 1447454576253
496, 1447454576264
481, 1447454576276
524, 1447454576287
529, 1447454576299
515, 1447454576310
580, 1447454576322
574, 1447454576333
457, 1447454576345
476, 1447454576356
554, 1447454576368
512, 1447454576379
508, 1447454576391
531, 1447454576402
498, 1447454576414
474, 1447454576425
518, 1447454576437
501, 1447454576448
477, 1447454576460
523, 1447454576471
513, 1447454576483
467, 1447454576494
524, 1447454576505
526, 1447454576517
498, 1447454576529
522, 1447454576542
549, 1447454576551
506, 1447454576563
510, 1447454576574
533, 1447454576586
499, 1447454576597
456, 1447454576609
510, 1447454576620
481, 1447454576632
447, 1447454576643
480, 1447454576655
470, 1447454576666
450, 1447454576678
475, 1447454576689
490, 1447454576703
452, 1447454576712
462, 1447454576724
472, 1447454576735
447, 1447454576747
448, 1447454576763
486, 1447454576770
455, 1447454576781
449, 1447454576793
468, 1447454576804
466, 1447454576817
419, 1447454576827
451, 1447454576838
468, 1447454576850
409, 1447454576861
444, 1447454576873
467, 1447454576889
422, 1447454576896
434, 1447454576907
466, 1447454576918
437, 1447454576931
441, 1447454576942
475, 1447454576954
462, 1447454576964
417, 1447454576976
469, 1447454576988
460, 1447454576999
418, 1447454577010
450, 1447454577022
455, 1447454577033
423, 1447454577045
430, 1447454577056
461, 1447454577068
419, 1447454577079
448, 1447454577091
455, 1447454577103
441, 1447454577114
444, 1447454577125
531, 1447454577137
466, 1447454577148
382, 1447454577160
470, 1447454577171
493, 1447454577182
439, 1447454577194
436, 1447454577205
514, 1447454577217
440, 1447454577228
457, 1447454577240
481, 1447454577251
466, 1447454577277
446, 1447454577277
495, 1447454577286
487, 1447454577297
459, 1447454577309
505, 1447454577320
507, 1447454577333
481, 1447454577343
519, 1447454577355
521, 1447454577366
482, 1447454577378
507, 1447454577389
532, 1447454577401
484, 1447454577412
475, 1447454577424
500, 1447454577435
484, 1447454577447
460, 1447454577458
501, 1447454577470
491, 1447454577481
474, 1447454577493
497, 1447454577504
522, 1447454577518
469, 1447454577527
500, 1447454577539
517, 1447454577550
477, 1447454577562
490, 1447454577573
523, 1447454577585
506, 1447454577596
500, 1447454577608
523, 1447454577619
515, 1447454577631
504, 1447454577642
533, 1447454577654
522, 1447454577665
501, 1447454577677
543, 1447454577688
536, 1447454577700
517, 1447454577716
522, 1447454577723
558, 1447454577736
520, 1447454577746
527, 1447454577757
554, 1447454577776
523, 1447454577784
523, 1447454577792
566, 1447454577807
554, 1447454577815
530, 1447454577826
554, 1447454577841
571, 1447454577852
530, 1447454577861
546, 1447454577871
567, 1447454577883
542, 1447454577897
544, 1447454577907
585, 1447454577918
545, 1447454577929
552, 1447454577941
581, 1447454577953
564, 1447454577964
558, 1447454577975
659, 1447454577987
579, 1447454577997
518, 1447454578010
560, 1447454578021
592, 1447454578032
545, 1447454578045
577, 1447454578057
585, 1447454578066
553, 1447454578079
560, 1447454578090
606, 1447454578102
569, 1447454578113
570, 1447454578124
610, 1447454578136
593, 1447454578147
561, 1447454578159
619, 1447454578171
607, 1447454578181
602, 1447454578194
626, 1447454578204
647, 1447454578216
605, 1447454578228
613, 1447454578239
616, 1447454578250
578, 1447454578262
587, 1447454578274
599, 1447454578288
570, 1447454578296
545, 1447454578308
583, 1447454578320
566, 1447454578331
519, 1447454578342
566, 1447454578354
546, 1447454578365
525, 1447454578377
548, 1447454578388
543, 1447454578400
505, 1447454578411
526, 1447454578423
538, 1447454578434
508, 1447454578446
519, 1447454578457
562, 1447454578469
508, 1447454578480
503, 1447454578492
540, 1447454578503
525, 1447454578515
501, 1447454578526
530, 1447454578538
539, 1447454578549
476, 1447454578561
497, 1447454578572
528, 1447454578584
479, 1447454578595
506, 1447454578607
532, 1447454578618
484, 1447454578629
499, 1447454578642
518, 1447454578653
484, 1447454578664
472, 1447454578675
522, 1447454578687
493, 1447454578703
470, 1447454578710
512, 1447454578721
497, 1447454578733
464, 1447454578744
480, 1447454578756
500, 1447454578767
466, 1447454578779
478, 1447454578790
494, 1447454578802
485, 1447454578813
478, 1447454578825
519, 1447454578836
520, 1447454578848
547, 1447454578859
498, 1447454578871
481, 1447454578882
467, 1447454578894
532, 1447454578905
512, 1447454578917
475, 1447454578928
494, 1447454578940
534, 1447454578951
493, 1447454578963
497, 1447454578974
524, 1447454578986
505, 1447454578997
495, 1447454579009
535, 1447454579020
521, 1447454579032
516, 1447454579043
538, 1447454579055
559, 1447454579066
512, 1447454579078
541, 1447454579089
564, 1447454579100
515, 1447454579112
528, 1447454579123
552, 1447454579135
514, 1447454579146
504, 1447454579157
518, 1447454579170
483, 1447454579180
478, 1447454579192
521, 1447454579204
512, 1447454579215
480, 1447454579226
528, 1447454579239
519, 1447454579249
479, 1447454579261
522, 1447454579272
530, 1447454579284
498, 1447454579295
507, 1447454579308
525, 1447454579318
497, 1447454579331
495, 1447454579341
548, 1447454579354
517, 1447454579364
490, 1447454579376
551, 1447454579391
529, 1447454579401
494, 1447454579412
520, 1447454579427
511, 1447454579433
476, 1447454579444
500, 1447454579457
521, 1447454579469
506, 1447454579479
524, 1447454579492
554, 1447454579504
503, 1447454579513
469, 1447454579529
521, 1447454579536
499, 1447454579548
485, 1447454579559
528, 1447454579571
506, 1447454579584
500, 1447454579596
501, 1447454579605
511, 1447454579617
470, 1447454579628
467, 1447454579642
530, 1447454579651
482, 1447454579663
484, 1447454579676
504, 1447454579687
461, 1447454579698
444, 1447454579714
480, 1447454579721
530, 1447454579733
536, 1447454579743
536, 1447454579755
462, 1447454579766
427, 1447454579778
503, 1447454579793
522, 1447454579805
499, 1447454579812
489, 1447454579830
526, 1447454579837
507, 1447454579847
496, 1447454579858
538, 1447454579870
514, 1447454579881
494, 1447454579893
527, 1447454579904
534, 1447454579918
528, 1447454579927
547, 1447454579940
596, 1447454579950
541, 1447454579963
569, 1447454579977
580, 1447454579985
552, 1447454579996
522, 1447454580010
565, 1447454580020
513, 1447454580032
488, 1447454580042
532, 1447454580054
505, 1447454580065
489, 1447454580076
486, 1447454580088
491, 1447454580099
429, 1447454580111
485, 1447454580122
487, 1447454580134
471, 1447454580146
483, 1447454580157
512, 1447454580168
470, 1447454580180
466, 1447454580191
534, 1447454580203
490, 1447454580214
487, 1447454580226
510, 1447454580237
483, 1447454580250
465, 1447454580259
509, 1447454580272
518, 1447454580283
463, 1447454580294
495, 1447454580305
521, 1447454580318
471, 1447454580334
480, 1447454580347
516, 1447454580352
487, 1447454580363
485, 1447454580375
535, 1447454580387
523, 1447454580397
504, 1447454580409
546, 1447454580420
549, 1447454580433
490, 1447454580443
521, 1447454580455
541, 1447454580467
481, 1447454580478
494, 1447454580490
525, 1447454580503
485, 1447454580512
493, 1447454580527
529, 1447454580535
523, 1447454580549
574, 1447454580561
615, 1447454580570
502, 1447454580581
466, 1447454580593
547, 1447454580604
538, 1447454580616
502, 1447454580627
535, 1447454580650
559, 1447454580650
511, 1447454580663
543, 1447454580673
579, 1447454580685
529, 1447454580696
503, 1447454580708
571, 1447454580721
546, 1447454580730
514, 1447454580743
555, 1447454580753
552, 1447454580765
507, 1447454580777
549, 1447454580788
554, 1447454580800
528, 1447454580811
538, 1447454580822
551, 1447454580834
511, 1447454580845
489, 1447454580863
537, 1447454580868
478, 1447454580880
483, 1447454580891
535, 1447454580903
472, 1447454580914
476, 1447454580926
515, 1447454580937
489, 1447454580949
469, 1447454580960
497, 1447454580972
507, 1447454580983
471, 1447454580995
497, 1447454581006
516, 1447454581018
467, 1447454581029
473, 1447454581041
519, 1447454581053
482, 1447454581064
476, 1447454581075
510, 1447454581087
486, 1447454581098
455, 1447454581111
489, 1447454581121
502, 1447454581133
455, 1447454581144
487, 1447454581156
494, 1447454581167
443, 1447454581179
486, 1447454581190
496, 1447454581202
467, 1447454581213
464, 1447454581225
499, 1447454581236
478, 1447454581248
442, 1447454581260
490, 1447454581271
469, 1447454581282
449, 1447454581294
475, 1447454581307
473, 1447454581317
433, 1447454581328
467, 1447454581340
494, 1447454581354
456, 1447454581365
492, 1447454581374
549, 1447454581389
443, 1447454581397
407, 1447454581409
487, 1447454581424
501, 1447454581432
448, 1447454581443
493, 1447454581453
496, 1447454581465
451, 1447454581477
482, 1447454581489
515, 1447454581499
462, 1447454581512
474, 1447454581523
516, 1447454581538
467, 1447454581546
473, 1447454581558
524, 1447454581572
494, 1447454581581
486, 1447454581591
528, 1447454581603
513, 1447454581614
493, 1447454581626
520, 1447454581638
531, 1447454581649
459, 1447454581662
486, 1447454581673
495, 1447454581683
452, 1447454581695
468, 1447454581706
500, 1447454581720
477, 1447454581729
462, 1447454581741
509, 1447454581755
495, 1447454581764
466, 1447454581778
508, 1447454581788
500, 1447454581799
457, 1447454581810
499, 1447454581823
513, 1447454581833
477, 1447454581847
488, 1447454581857
514, 1447454581867
497, 1447454581881
469, 1447454581891
518, 1447454581903
497, 1447454581914
482, 1447454581925
529, 1447454581942
505, 1447454581948
476, 1447454581961
529, 1447454581971
533, 1447454581982
508, 1447454581996
547, 1447454582006
562, 1447454582018
492, 1447454582028
521, 1447454582040
553, 1447454582051
504, 1447454582063
497, 1447454582074
533, 1447454582087
513, 1447454582097
481, 1447454582109
532, 1447454582120
526, 1447454582132
499, 1447454582145
537, 1447454582154
552, 1447454582169
527, 1447454582177
605, 1447454582189
577, 1447454582200
438, 1447454582212
483, 1447454582223
560, 1447454582235
539, 1447454582246
530, 1447454582258
562, 1447454582270
542, 1447454582281
520, 1447454582297
571, 1447454582304
558, 1447454582315
518, 1447454582327
556, 1447454582338
573, 1447454582350
520, 1447454582361
555, 1447454582374
569, 1447454582386
535, 1447454582396
544, 1447454582407
592, 1447454582420
554, 1447454582433
547, 1447454582446
582, 1447454582453
548, 1447454582465
497, 1447454582476
532, 1447454582488
540, 1447454582499
486, 1447454582511
524, 1447454582522
541, 1447454582536
502, 1447454582545
514, 1447454582558
528, 1447454582570
503, 1447454582581
486, 1447454582590
520, 1447454582605
493, 1447454582614
471, 1447454582626
504, 1447454582637
488, 1447454582648
467, 1447454582665
505, 1447454582674
516, 1447454582682
471, 1447454582695
504, 1447454582706
519, 1447454582719
466, 1447454582729
478, 1447454582741
504, 1447454582754
477, 1447454582764
463, 1447454582775
503, 1447454582786
480, 1447454582798
482, 1447454582810
517, 1447454582821
516, 1447454582831
476, 1447454582844
511, 1447454582855
512, 1447454582866
482, 1447454582877
502, 1447454582889
525, 1447454582900
487, 1447454582914
478, 1447454582924
524, 1447454582938
486, 1447454582946
490, 1447454582959
542, 1447454582969
579, 1447454582981
485, 1447454582992
482, 1447454583004
487, 1447454583016
503, 1447454583027
527, 1447454583038
544, 1447454583051
497, 1447454583062
507, 1447454583078
541, 1447454583084
501, 1447454583098
500, 1447454583107
547, 1447454583119
518, 1447454583130
497, 1447454583142
538, 1447454583155
527, 1447454583166
490, 1447454583176
541, 1447454583188
559, 1447454583199
509, 1447454583214
546, 1447454583222
564, 1447454583234
522, 1447454583245
515, 1447454583257
533, 1447454583277
488, 1447454583280
480, 1447454583291
519, 1447454583304
492, 1447454583314
478, 1447454583328
524, 1447454583338
503, 1447454583349
474, 1447454583366
502, 1447454583372
514, 1447454583383
461, 1447454583395
470, 1447454583406
500, 1447454583418
456, 1447454583429
458, 1447454583440
510, 1447454583453
476, 1447454583463
467, 1447454583475
514, 1447454583491
492, 1447454583500
475, 1447454583509
492, 1447454583521
494, 1447454583532
460, 1447454583546
500, 1447454583556
515, 1447454583567
484, 1447454583578
502, 1447454583590
518, 1447454583601
495, 1447454583613
488, 1447454583624
513, 1447454583642
481, 1447454583647
463, 1447454583660
500, 1447454583670
485, 1447454583682
463, 1447454583693
485, 1447454583705
490, 1447454583716
455, 1447454583728
491, 1447454583739
546, 1447454583751
549, 1447454583765
469, 1447454583774
479, 1447454583785
479, 1447454583797
499, 1447454583808
541, 1447454583825
516, 1447454583832
497, 1447454583843
553, 1447454583857
547, 1447454583866
514, 1447454583877
551, 1447454583893
570, 1447454583900
503, 1447454583911
543, 1447454583923
564, 1447454583939
521, 1447454583949
528, 1447454583958
577, 1447454583968
544, 1447454583981
526, 1447454583992
575, 1447454584008
550, 1447454584014
524, 1447454584029
550, 1447454584038
538, 1447454584051
506, 1447454584060
529, 1447454584072
547, 1447454584083
494, 1447454584097
539, 1447454584106
556, 1447454584118
518, 1447454584129
516, 1447454584141
561, 1447454584159
519, 1447454584163
509, 1447454584176
551, 1447454584186
528, 1447454584198
504, 1447454584210
536, 1447454584223
543, 1447454584232
503, 1447454584247
538, 1447454584256
562, 1447454584267
513, 1447454584279
522, 1447454584290
549, 1447454584302
510, 1447454584313
516, 1447454584324
563, 1447454584351
524, 1447454584351
504, 1447454584359
563, 1447454584371
546, 1447454584382
519, 1447454584393
556, 1447454584406
547, 1447454584416
497, 1447454584428
522, 1447454584439
536, 1447454584452
494, 1447454584466
512, 1447454584479
555, 1447454584485
524, 1447454584497
503, 1447454584508
554, 1447454584520
550, 1447454584534
579, 1447454584543
541, 1447454584559
497, 1447454584569
496, 1447454584577
559, 1447454584592
560, 1447454584601
493, 1447454584612
529, 1447454584623
567, 1447454584636
519, 1447454584647
518, 1447454584658
569, 1447454584671
524, 1447454584688
517, 1447454584692
555, 1447454584705
540, 1447454584715
518, 1447454584727
563, 1447454584739
554, 1447454584750
511, 1447454584761
556, 1447454584773
581, 1447454584784
526, 1447454584795
543, 1447454584807
553, 1447454584820
514, 1447454584830
493, 1447454584841
535, 1447454584856
498, 1447454584864
497, 1447454584879
543, 1447454584887
534, 1447454584899
498, 1447454584910
533, 1447454584923
531, 1447454584933
483, 1447454584945
510, 1447454584956
540, 1447454584968
499, 1447454584979
510, 1447454584991
545, 1447454585004
509, 1447454585015
495, 1447454585025
530, 1447454585037
508, 1447454585049
484, 1447454585060
535, 1447454585071
523, 1447454585083
475, 1447454585095
516, 1447454585107
519, 1447454585117
477, 1447454585129
508, 1447454585140
550, 1447454585155
508, 1447454585163
506, 1447454585175
549, 1447454585188
500, 1447454585198
481, 1447454585209
541, 1447454585221
518, 1447454585234
474, 1447454585243
522, 1447454585254
518, 1447454585267
473, 1447454585281
509, 1447454585292
540, 1447454585301
480, 1447454585312
490, 1447454585324
525, 1447454585337
492, 1447454585358
542, 1447454585358
559, 1447454585370
468, 1447454585382
447, 1447454585394
545, 1447454585405
529, 1447454585415
484, 1447454585428
517, 1447454585439
523, 1447454585450
477, 1447454585461
507, 1447454585476
534, 1447454585484
495, 1447454585496
508, 1447454585508
544, 1447454585518
504, 1447454585530
510, 1447454585541
556, 1447454585554
531, 1447454585564
507, 1447454585576
548, 1447454585587
535, 1447454585599
501, 1447454585610
530, 1447454585622
545, 1447454585633
487, 1447454585645
503, 1447454585656
524, 1447454585672
472, 1447454585679
473, 1447454585691
519, 1447454585703
485, 1447454585714
480, 1447454585725
519, 1447454585737
507, 1447454585749
481, 1447454585763
513, 1447454585772
521, 1447454585783
471, 1447454585795
507, 1447454585806
521, 1447454585817
470, 1447454585829
496, 1447454585841
524, 1447454585852
488, 1447454585863
476, 1447454585875
524, 1447454585886
497, 1447454585898
481, 1447454585909
532, 1447454585921
506, 1447454585932
468, 1447454585944
508, 1447454585955
520, 1447454585967
480, 1447454585978
528, 1447454585990
548, 1447454586001
482, 1447454586013
492, 1447454586027
532, 1447454586037
495, 1447454586047
499, 1447454586059
556, 1447454586070
530, 1447454586087
497, 1447454586093
526, 1447454586105
519, 1447454586117
476, 1447454586128
519, 1447454586139
544, 1447454586151
490, 1447454586162
512, 1447454586173
553, 1447454586187
490, 1447454586196
527, 1447454586214
614, 1447454586219
506, 1447454586232
441, 1447454586242
519, 1447454586254
541, 1447454586266
490, 1447454586279
519, 1447454586288
534, 1447454586303
483, 1447454586311
521, 1447454586323
546, 1447454586334
491, 1447454586348
514, 1447454586357
542, 1447454586369
505, 1447454586380
507, 1447454586394
547, 1447454586404
525, 1447454586415
499, 1447454586426
544, 1447454586438
524, 1447454586449
499, 1447454586462
540, 1447454586472
547, 1447454586484
485, 1447454586494
505, 1447454586507
515, 1447454586520
476, 1447454586529
481, 1447454586541
524, 1447454586553
478, 1447454586565
474, 1447454586575
525, 1447454586589
491, 1447454586598
469, 1447454586610
517, 1447454586622
518, 1447454586632
478, 1447454586644
503, 1447454586655
514, 1447454586669
476, 1447454586680
501, 1447454586690
526, 1447454586703
479, 1447454586713
502, 1447454586727
525, 1447454586737
492, 1447454586748
476, 1447454586765
525, 1447454586770
503, 1447454586781
471, 1447454586794
514, 1447454586804
525, 1447454586816
467, 1447454586827
511, 1447454586842
520, 1447454586862
490, 1447454586862
511, 1447454586874
553, 1447454586887
496, 1447454586896
506, 1447454586908
548, 1447454586919
506, 1447454586932
492, 1447454586942
675, 1447454586954
580, 1447454586965
524, 1447454586977
538, 1447454586988
530, 1447454587000
490, 1447454587012
521, 1447454587023
542, 1447454587038
506, 1447454587046
562, 1447454587059
568, 1447454587072
464, 1447454587081
445, 1447454587092
541, 1447454587104
527, 1447454587115
484, 1447454587129
520, 1447454587139
517, 1447454587149
470, 1447454587161
512, 1447454587172
526, 1447454587191
476, 1447454587195
508, 1447454587207
534, 1447454587219
484, 1447454587231
508, 1447454587241
542, 1447454587253
511, 1447454587264
495, 1447454587276
547, 1447454587293
516, 1447454587299
505, 1447454587310
536, 1447454587322
514, 1447454587334
459, 1447454587347
491, 1447454587356
497, 1447454587368
452, 1447454587379
476, 1447454587391
517, 1447454587410
464, 1447454587415
457, 1447454587425
501, 1447454587440
459, 1447454587448
452, 1447454587459
509, 1447454587472
489, 1447454587482
459, 1447454587494
495, 1447454587505
498, 1447454587518
444, 1447454587531
474, 1447454587540
501, 1447454587553
453, 1447454587563
466, 1447454587576
507, 1447454587586
460, 1447454587597
451, 1447454587609
494, 1447454587625
479, 1447454587638
451, 1447454587650
497, 1447454587655
494, 1447454587669
437, 1447454587679
484, 1447454587688
498, 1447454587700
452, 1447454587713
479, 1447454587723
507, 1447454587735
462, 1447454587746
478, 1447454587757
508, 1447454587772
454, 1447454587784
454, 1447454587794
499, 1447454587806
472, 1447454587815
446, 1447454587826
491, 1447454587840
489, 1447454587849
452, 1447454587861
490, 1447454587873
531, 1447454587884
535, 1447454587896
481, 1447454587907
465, 1447454587918
445, 1447454587930
481, 1447454587942
524, 1447454587954
491, 1447454587965
460, 1447454587976
522, 1447454587989
496, 1447454587999
474, 1447454588012
500, 1447454588023
512, 1447454588034
475, 1447454588045
498, 1447454588057
528, 1447454588067
484, 1447454588084
500, 1447454588090
543, 1447454588104
505, 1447454588115
499, 1447454588131
551, 1447454588136
517, 1447454588148
477, 1447454588160
513, 1447454588175
497, 1447454588182
472, 1447454588194
501, 1447454588208
506, 1447454588218
462, 1447454588229
482, 1447454588242
505, 1447454588251
469, 1447454588263
472, 1447454588274
519, 1447454588290
486, 1447454588297
473, 1447454588309
521, 1447454588320
498, 1447454588332
456, 1447454588345
512, 1447454588356
499, 1447454588366
467, 1447454588378
510, 1447454588390
526, 1447454588406
476, 1447454588412
494, 1447454588424
527, 1447454588435
468, 1447454588447
479, 1447454588458
525, 1447454588470
495, 1447454588487
469, 1447454588493
510, 1447454588504
495, 1447454588517
476, 1447454588527
507, 1447454588549
505, 1447454588550
469, 1447454588562
489, 1447454588579
511, 1447454588585
474, 1447454588596
489, 1447454588608
532, 1447454588621
493, 1447454588631
482, 1447454588642
526, 1447454588654
493, 1447454588665
462, 1447454588680
522, 1447454588689
502, 1447454588700
449, 1447454588711
493, 1447454588723
509, 1447454588735
466, 1447454588749
478, 1447454588758
505, 1447454588768
479, 1447454588780
532, 1447454588794
568, 1447454588803
447, 1447454588814
429, 1447454588826
524, 1447454588840
501, 1447454588856
462, 1447454588860
503, 1447454588872
511, 1447454588885
472, 1447454588896
508, 1447454588906
524, 1447454588918
475, 1447454588929
488, 1447454588942
534, 1447454588952
503, 1447454588964
498, 1447454588975
540, 1447454588987
519, 1447454588997
504, 1447454589010
551, 1447454589021
541, 1447454589039
516, 1447454589043
553, 1447454589058
538, 1447454589071
472, 1447454589080
511, 1447454589089
529, 1447454589101
493, 1447454589112
505, 1447454589128
541, 1447454589137
486, 1447454589151
480, 1447454589158
537, 1447454589170
525, 1447454589181
485, 1447454589193
533, 1447454589204
521, 1447454589216
482, 1447454589227
516, 1447454589243
541, 1447454589251
485, 1447454589263
525, 1447454589273
543, 1447454589287
493, 1447454589297
501, 1447454589309
542, 1447454589319
510, 1447454589331
486, 1447454589342
546, 1447454589354
506, 1447454589367
481, 1447454589379
536, 1447454589388
534, 1447454589400
498, 1447454589411
525, 1447454589423
534, 1447454589434
491, 1447454589448
502, 1447454589457
533, 1447454589468
495, 1447454589489
491, 1447454589492
540, 1447454589505
496, 1447454589514
494, 1447454589526
552, 1447454589537
523, 1447454589549
483, 1447454589560
516, 1447454589572
541, 1447454589583
498, 1447454589595
515, 1447454589609
531, 1447454589618
473, 1447454589629
496, 1447454589642
533, 1447454589652
475, 1447454589664
470, 1447454589675
515, 1447454589687
495, 1447454589698
476, 1447454589711
550, 1447454589724
569, 1447454589734
437, 1447454589744
453, 1447454589756
521, 1447454589767
494, 1447454589779
495, 1447454589794
504, 1447454589804
458, 1447454589815
477, 1447454589825
518, 1447454589836
482, 1447454589848
466, 1447454589859
531, 1447454589871
508, 1447454589882
476, 1447454589901
529, 1447454589905
524, 1447454589923
473, 1447454589929
519, 1447454589940
543, 1447454589951
489, 1447454589963
506, 1447454589974
549, 1447454589986
497, 1447454589997
490, 1447454590009
531, 1447454590021
485, 1447454590032
466, 1447454590051
530, 1447454590055
526, 1447454590068
471, 1447454590079
518, 1447454590089
534, 1447454590101
479, 1447454590112
509, 1447454590124
548, 1447454590134
483, 1447454590148
493, 1447454590159
540, 1447454590170
493, 1447454590181
556, 1447454590192
483, 1447454590203
506, 1447454590214
470, 1447454590228
532, 1447454590238
530, 1447454590250
514, 1447454590261
532, 1447454590272
540, 1447454590283
512, 1447454590299
539, 1447454590307
580, 1447454590318
570, 1447454590333
478, 1447454590341
605, 1447454590356
558, 1447454590366
518, 1447454590375
609, 1447454590387
527, 1447454590400
518, 1447454590418
602, 1447454590421
583, 1447454590433
497, 1447454590444
553, 1447454590456
588, 1447454590468
482, 1447454590479
551, 1447454590490
615, 1447454590503
509, 1447454590515
560, 1447454590525
531, 1447454590537
520, 1447454590548
574, 1447454590559
617, 1447454590571
528, 1447454590582
471, 1447454590596
514, 1447454590605
541, 1447454590617
472, 1447454590629
507, 1447454590640
536, 1447454590660
495, 1447454590663
485, 1447454590675
547, 1447454590688
524, 1447454590698
504, 1447454590709
547, 1447454590727
490, 1447454590733
499, 1447454590743
601, 1447454590755
529, 1447454590767
509, 1447454590784
527, 1447454590789
570, 1447454590800
540, 1447454590816
562, 1447454590826
563, 1447454590836
531, 1447454590846
462, 1447454590858
537, 1447454590870
445, 1447454590881
498, 1447454590892
541, 1447454590904
509, 1447454590915
472, 1447454590929
520, 1447454590942
510, 1447454590950
443, 1447454590961
496, 1447454590973
529, 1447454590984
473, 1447454590998
521, 1447454591007
506, 1447454591019
480, 1447454591030
470, 1447454591043
551, 1447454591054
477, 1447454591065
463, 1447454591076
470, 1447454591088
439, 1447454591099
426, 1447454591111
482, 1447454591124
526, 1447454591134
471, 1447454591145
474, 1447454591159
518, 1447454591168
427, 1447454591180
454, 1447454591191
538, 1447454591204
500, 1447454591214
500, 1447454591226
538, 1447454591237
525, 1447454591249
477, 1447454591260
544, 1447454591279
484, 1447454591283
448, 1447454591295
476, 1447454591306
531, 1447454591319
473, 1447454591329
542, 1447454591341
549, 1447454591351
456, 1447454591363
467, 1447454591374
530, 1447454591387
504, 1447454591398
498, 1447454591410
494, 1447454591420
440, 1447454591433
473, 1447454591444
527, 1447454591459
530, 1447454591467
447, 1447454591478
495, 1447454591490
489, 1447454591502
441, 1447454591517
462, 1447454591529
535, 1447454591536
476, 1447454591547
469, 1447454591558
560, 1447454591570
510, 1447454591581
488, 1447454591592
541, 1447454591604
519, 1447454591615
486, 1447454591627
519, 1447454591638
536, 1447454591650
481, 1447454591663
503, 1447454591675
511, 1447454591684
465, 1447454591696
476, 1447454591708
523, 1447454591720
459, 1447454591731
474, 1447454591742
502, 1447454591753
484, 1447454591766
465, 1447454591776
515, 1447454591792
496, 1447454591804
454, 1447454591811
508, 1447454591822
531, 1447454591834
452, 1447454591846
467, 1447454591859
523, 1447454591881
458, 1447454591881
464, 1447454591891
528, 1447454591903
460, 1447454591914
459, 1447454591927
502, 1447454591937
502, 1447454591949
479, 1447454591960
488, 1447454591975
514, 1447454591989
458, 1447454591995
502, 1447454592006
524, 1447454592018
460, 1447454592029
493, 1447454592044
528, 1447454592053
469, 1447454592064
473, 1447454592076
534, 1447454592087
529, 1447454592098
442, 1447454592111
522, 1447454592121
501, 1447454592133
453, 1447454592144
503, 1447454592155
541, 1447454592167
445, 1447454592178
478, 1447454592190
516, 1447454592201
460, 1447454592213
484, 1447454592231
575, 1447454592240
523, 1447454592247
432, 1447454592259
496, 1447454592270
518, 1447454592282
492, 1447454592294
504, 1447454592307
512, 1447454592316
485, 1447454592334
498, 1447454592339
537, 1447454592351
470, 1447454592362
509, 1447454592374
544, 1447454592385
495, 1447454592397
511, 1447454592409
553, 1447454592420
510, 1447454592431
491, 1447454592443
562, 1447454592454
537, 1447454592466
495, 1447454592477
570, 1447454592489
537, 1447454592502
487, 1447454592513
514, 1447454592523
548, 1447454592535
463, 1447454592547
472, 1447454592558
534, 1447454592573
465, 1447454592581
472, 1447454592592
519, 1447454592604
487, 1447454592617
460, 1447454592628
533, 1447454592638
499, 1447454592649
470, 1447454592661
508, 1447454592673
519, 1447454592683
457, 1447454592696
499, 1447454592706
521, 1447454592720
465, 1447454592729
472, 1447454592742
521, 1447454592753
467, 1447454592764
478, 1447454592776
524, 1447454592787
499, 1447454592799
453, 1447454592814
507, 1447454592822
523, 1447454592834
450, 1447454592844
507, 1447454592857
524, 1447454592874
464, 1447454592878
481, 1447454592890
543, 1447454592902
470, 1447454592913
480, 1447454592928
566, 1447454592945
493, 1447454592948
479, 1447454592959
526, 1447454592971
504, 1447454592982
465, 1447454592998
508, 1447454593005
510, 1447454593018
457, 1447454593029
498, 1447454593039
522, 1447454593051
474, 1447454593062
481, 1447454593074
596, 1447454593085
550, 1447454593097
449, 1447454593108
503, 1447454593121
510, 1447454593131
492, 1447454593143
539, 1447454593154
508, 1447454593166
461, 1447454593180
522, 1447454593189
531, 1447454593200
477, 1447454593214
510, 1447454593224
543, 1447454593235
496, 1447454593246
496, 1447454593259
552, 1447454593271
513, 1447454593281
501, 1447454593292
572, 1447454593305
543, 1447454593315
520, 1447454593327
562, 1447454593339
551, 1447454593350
499, 1447454593364
530, 1447454593373
537, 1447454593384
468, 1447454593399
490, 1447454593410
536, 1447454593424
486, 1447454593430
474, 1447454593444
539, 1447454593455
478, 1447454593465
464, 1447454593476
536, 1447454593489
521, 1447454593500
452, 1447454593510
526, 1447454593523
528, 1447454593533
466, 1447454593546
507, 1447454593556
547, 1447454593571
473, 1447454593582
501, 1447454593591
544, 1447454593603
485, 1447454593615
473, 1447454593625
543, 1447454593638
508, 1447454593648
469, 1447454593660
536, 1447454593678
527, 1447454593688
457, 1447454593695
546, 1447454593706
539, 1447454593717
490, 1447454593731
500, 1447454593740
533, 1447454593752
483, 1447454593763
509, 1447454593777
544, 1447454593795
511, 1447454593798
479, 1447454593809
546, 1447454593825
513, 1447454593832
473, 1447454593844
528, 1447454593857
547, 1447454593867
482, 1447454593880
512, 1447454593890
557, 1447454593900
480, 1447454593913
500, 1447454593923
553, 1447454593936
499, 1447454593949
566, 1447454593959
602, 1447454593970
461, 1447454593982
460, 1447454593992
576, 1447454594004
517, 1447454594015
467, 1447454594028
531, 1447454594039
548, 1447454594050
483, 1447454594064
531, 1447454594075
546, 1447454594084
496, 1447454594098
509, 1447454594108
552, 1447454594121
513, 1447454594134
495, 1447454594141
570, 1447454594153
527, 1447454594164
504, 1447454594178
585, 1447454594187
544, 1447454594199
505, 1447454594210
555, 1447454594228
533, 1447454594237
481, 1447454594248
523, 1447454594256
525, 1447454594268
457, 1447454594281
460, 1447454594291
527, 1447454594304
459, 1447454594314
460, 1447454594325
520, 1447454594339
491, 1447454594348
467, 1447454594360
511, 1447454594374
512, 1447454594383
456, 1447454594394
498, 1447454594406
523, 1447454594417
475, 1447454594429
482, 1447454594440
529, 1447454594453
467, 1447454594463
484, 1447454594475
520, 1447454594486
493, 1447454594498
466, 1447454594511
520, 1447454594521
499, 1447454594534
459, 1447454594544
518, 1447454594558
496, 1447454594567
453, 1447454594580
512, 1447454594590
518, 1447454594609
475, 1447454594613
494, 1447454594624
539, 1447454594636
482, 1447454594650
479, 1447454594659
540, 1447454594670
498, 1447454594682
457, 1447454594693
512, 1447454594705
503, 1447454594716
457, 1447454594728
507, 1447454594740
501, 1447454594751
468, 1447454594762
480, 1447454594774
530, 1447454594785
487, 1447454594796
538, 1447454594808
575, 1447454594819
445, 1447454594832
439, 1447454594843
545, 1447454594854
524, 1447454594865
474, 1447454594877
523, 1447454594888
539, 1447454594900
464, 1447454594911
519, 1447454594930
529, 1447454594934
491, 1447454594946
494, 1447454594957
578, 1447454594975
477, 1447454594989
495, 1447454594992
572, 1447454595003
535, 1447454595015
512, 1447454595026
577, 1447454595038
554, 1447454595052
502, 1447454595060
566, 1447454595072
525, 1447454595084
475, 1447454595097
519, 1447454595114
529, 1447454595118
461, 1447454595129
521, 1447454595145
519, 1447454595156
518, 1447454595164
463, 1447454595176
537, 1447454595187
504, 1447454595199
488, 1447454595210
535, 1447454595221
551, 1447454595233
489, 1447454595245
524, 1447454595256
551, 1447454595268
482, 1447454595278
514, 1447454595290
557, 1447454595301
506, 1447454595314
486, 1447454595327
554, 1447454595337
503, 1447454595347
486, 1447454595359
547, 1447454595370
512, 1447454595382
488, 1447454595393
535, 1447454595411
527, 1447454595417
483, 1447454595428
514, 1447454595439
536, 1447454595452
472, 1447454595462
498, 1447454595474
552, 1447454595486
489, 1447454595499
501, 1447454595509
542, 1447454595522
502, 1447454595531
478, 1447454595542
531, 1447454595554
504, 1447454595565
443, 1447454595577
506, 1447454595588
531, 1447454595601
439, 1447454595611
496, 1447454595623
529, 1447454595634
490, 1447454595646
470, 1447454595657
522, 1447454595670
470, 1447454595688
525, 1447454595693
551, 1447454595703
450, 1447454595715
414, 1447454595727
515, 1447454595739
500, 1447454595749
445, 1447454595765
482, 1447454595781
502, 1447454595784
448, 1447454595795
458, 1447454595807
506, 1447454595818
443, 1447454595831
463, 1447454595843
531, 1447454595855
462, 1447454595865
464, 1447454595876
517, 1447454595887
501, 1447454595899
478, 1447454595913
547, 1447454595922
538, 1447454595938
480, 1447454595945
494, 1447454595956
563, 1447454595975
495, 1447454595982
518, 1447454595991
552, 1447454596002
482, 1447454596014
449, 1447454596026
594, 1447454596037
529, 1447454596048
493, 1447454596064
551, 1447454596071
525, 1447454596084
470, 1447454596094
555, 1447454596106
469, 1447454596118
537, 1447454596129
592, 1447454596140
532, 1447454596155
504, 1447454596163
519, 1447454596175
542, 1447454596188
515, 1447454596198
498, 1447454596209
560, 1447454596220
527, 1447454596232
503, 1447454596245
531, 1447454596255
556, 1447454596265
501, 1447454596281
517, 1447454596292
586, 1447454596301
497, 1447454596314
544, 1447454596323
574, 1447454596335
520, 1447454596349
529, 1447454596358
579, 1447454596375
492, 1447454596381
487, 1447454596393
551, 1447454596403
548, 1447454596415
475, 1447454596426
544, 1447454596439
510, 1447454596450
501, 1447454596463
498, 1447454596474
540, 1447454596484
525, 1447454596496
583, 1447454596508
488, 1447454596518
